Date	2020年11月24日火曜日 06時44分21秒
Spectrometers	USB2+H05879
ダーク	使用
リファレンス	使用
積分時間[msec]	10
平均回数	200
ｽﾑｰｼﾞﾝｸﾞ	5
Electrical Dark	USE
ピクセル数	2048
計測モード	吸光度
保存開始波長[nm]	200.000
保存終了波長[nm]	800.000
保存ﾋﾟｯﾁ波長[nm]	全波長

>>>>>>>>>> Data Start <<<<<<<<<<<<
200.047	0.831104
200.422	0.813156
200.796	0.663241
201.171	0.625785
201.546	0.576113
201.921	0.616638
202.296	0.599902
202.671	0.589417
203.045	0.607594
203.420	0.617483
203.795	0.579762
204.170	0.561831
204.544	0.572190
204.919	0.581186
205.294	0.577318
205.668	0.576327
206.043	0.557082
206.417	0.574649
206.792	0.562273
207.166	0.564013
207.541	0.498772
207.915	0.500873
208.289	0.509658
208.664	0.485050
209.038	0.471974
209.412	0.461315
209.787	0.440000
210.161	0.451876
210.535	0.465536
210.909	0.478289
211.284	0.483318
211.658	0.511131
212.032	0.497091
212.406	0.491647
212.780	0.512884
213.154	0.535812
213.528	0.518383
213.902	0.535697
214.276	0.537486
214.650	0.495605
215.024	0.472209
215.398	0.460880
215.772	0.470939
216.145	0.488460
216.519	0.481814
216.893	0.454756
217.267	0.418747
217.640	0.428060
218.014	0.438705
218.388	0.421448
218.761	0.417753
219.135	0.434742
219.508	0.434491
219.882	0.427503
220.256	0.428760
220.629	0.437276
221.003	0.456356
221.376	0.477473
221.749	0.515842
222.123	0.530610
222.496	0.515455
222.869	0.515497
223.243	0.500612
223.616	0.470164
223.989	0.475050
224.362	0.451910
224.736	0.436240
225.109	0.425841
225.482	0.452007
225.855	0.433401
226.228	0.418371
226.601	0.450431
226.974	0.470846
227.347	0.459727
227.720	0.461167
228.093	0.458908
228.466	0.463736
228.839	0.466236
229.212	0.471244
229.585	0.455781
229.957	0.466658
230.330	0.488597
230.703	0.487297
231.076	0.470737
231.448	0.473433
231.821	0.493915
232.194	0.506301
232.566	0.502582
232.939	0.520035
233.311	0.542659
233.684	0.527006
234.056	0.495382
234.429	0.466371
234.801	0.447834
235.174	0.442562
235.546	0.433125
235.918	0.439569
236.291	0.430035
236.663	0.441607
237.035	0.436451
237.408	0.413373
237.780	0.433369
238.152	0.481569
238.524	0.504418
238.896	0.512065
239.268	0.525039
239.641	0.544805
240.013	0.521952
240.385	0.542114
240.757	0.530937
241.129	0.533845
241.500	0.513963
241.872	0.487459
242.244	0.449667
242.616	0.429936
242.988	0.413721
243.360	0.399041
243.731	0.404702
244.103	0.414131
244.475	0.397705
244.847	0.400476
245.218	0.395072
245.590	0.408215
245.961	0.432539
246.333	0.434401
246.705	0.427686
247.076	0.437792
247.448	0.445319
247.819	0.435835
248.190	0.440796
248.562	0.440633
248.933	0.459875
249.305	0.470671
249.676	0.477223
250.047	0.478014
250.418	0.478739
250.790	0.499302
251.161	0.479956
251.532	0.490399
251.903	0.487155
252.274	0.502177
252.645	0.506129
253.016	0.476839
253.387	0.458419
253.758	0.455459
254.129	0.444562
254.500	0.445979
254.871	0.437897
255.242	0.460827
255.613	0.460910
255.984	0.456693
256.355	0.434690
256.725	0.420538
257.096	0.425965
257.467	0.453459
257.838	0.438417
258.208	0.428056
258.579	0.431475
258.949	0.429836
259.320	0.418934
259.690	0.407334
260.061	0.409278
260.431	0.409959
260.802	0.412114
261.172	0.411172
261.543	0.379119
261.913	0.391113
262.283	0.387400
262.654	0.394840
263.024	0.384274
263.394	0.384835
263.764	0.386359
264.135	0.393121
264.505	0.388454
264.875	0.386607
265.245	0.380438
265.615	0.403746
265.985	0.410042
266.355	0.413750
266.725	0.393739
267.095	0.413078
267.465	0.407649
267.835	0.412827
268.205	0.406382
268.575	0.407216
268.944	0.417300
269.314	0.421025
269.684	0.407683
270.054	0.421006
270.423	0.422518
270.793	0.421862
271.163	0.408050
271.532	0.417391
271.902	0.415817
272.271	0.423192
272.641	0.428343
273.010	0.409735
273.380	0.414017
273.749	0.421338
274.119	0.406953
274.488	0.413208
274.857	0.408704
275.227	0.406189
275.596	0.403742
275.965	0.407230
276.335	0.417168
276.704	0.426572
277.073	0.448215
277.442	0.438131
277.811	0.432688
278.180	0.427021
278.549	0.435806
278.918	0.439645
279.287	0.459253
279.656	0.463343
280.025	0.465017
280.394	0.457214
280.763	0.453485
281.132	0.437398
281.501	0.428026
281.869	0.435749
282.238	0.434346
282.607	0.421663
282.976	0.435314
283.344	0.433794
283.713	0.437203
284.081	0.432514
284.450	0.430470
284.819	0.433463
285.187	0.472128
285.556	0.480245
285.924	0.475604
286.292	0.481295
286.661	0.495166
287.029	0.494910
287.398	0.493964
287.766	0.499469
288.134	0.517351
288.502	0.517337
288.871	0.527310
289.239	0.497725
289.607	0.509259
289.975	0.508186
290.343	0.518715
290.711	0.522240
291.079	0.522174
291.447	0.534543
291.815	0.529732
292.183	0.512931
292.551	0.520104
292.919	0.516486
293.287	0.520826
293.655	0.531063
294.022	0.541338
294.390	0.520247
294.758	0.508780
295.126	0.508566
295.493	0.506128
295.861	0.511768
296.229	0.522426
296.596	0.517533
296.964	0.511533
297.331	0.520154
297.699	0.511992
298.066	0.496642
298.434	0.504079
298.801	0.501238
299.168	0.513178
299.536	0.517355
299.903	0.520182
300.270	0.520851
300.638	0.536965
301.005	0.547990
301.372	0.557061
301.739	0.573216
302.106	0.593139
302.473	0.611959
302.840	0.627119
303.207	0.638454
303.574	0.651303
303.941	0.665260
304.308	0.693042
304.675	0.704568
305.042	0.724452
305.409	0.736722
305.776	0.757016
306.143	0.781851
306.509	0.803722
306.876	0.830452
307.243	0.851461
307.610	0.867600
307.976	0.882588
308.343	0.891627
308.709	0.903552
309.076	0.918374
309.442	0.933828
309.809	0.941814
310.175	0.953661
310.542	0.965693
310.908	0.969927
311.275	0.970954
311.641	0.973286
312.007	0.979982
312.373	0.986334
312.740	0.986610
313.106	0.989505
313.472	0.993459
313.838	0.997840
314.204	1.000562
314.570	1.003376
314.936	1.009100
315.302	1.012325
315.668	1.016307
316.034	1.017256
316.400	1.017602
316.766	1.020958
317.132	1.020460
317.498	1.021202
317.864	1.021059
318.230	1.021888
318.595	1.021790
318.961	1.020702
319.327	1.022058
319.692	1.021806
320.058	1.021936
320.424	1.020631
320.789	1.019914
321.155	1.020042
321.520	1.016813
321.886	1.015777
322.251	1.012881
322.616	1.010535
322.982	1.008046
323.347	1.005025
323.712	1.002865
324.078	1.000427
324.443	0.999475
324.808	0.997710
325.173	0.996266
325.539	0.995399
325.904	0.993549
326.269	0.992410
326.634	0.990624
326.999	0.988304
327.364	0.986230
327.729	0.983420
328.094	0.981080
328.459	0.978256
328.823	0.975325
329.188	0.972126
329.553	0.968635
329.918	0.965373
330.283	0.962155
330.647	0.958812
331.012	0.956072
331.377	0.953085
331.741	0.950628
332.106	0.947789
332.470	0.944744
332.835	0.941781
333.199	0.938949
333.564	0.936717
333.928	0.933899
334.293	0.931101
334.657	0.928867
335.021	0.926367
335.386	0.923941
335.750	0.921469
336.114	0.919182
336.478	0.916869
336.843	0.914892
337.207	0.912812
337.571	0.910606
337.935	0.908765
338.299	0.906861
338.663	0.904726
339.027	0.902634
339.391	0.900893
339.755	0.899135
340.119	0.897575
340.483	0.896038
340.846	0.894270
341.210	0.892591
341.574	0.891115
341.938	0.889707
342.301	0.888853
342.665	0.887931
343.029	0.887218
343.392	0.886330
343.756	0.885570
344.119	0.884568
344.483	0.883925
344.846	0.883677
345.210	0.883405
345.573	0.883110
345.937	0.882851
346.300	0.882325
346.663	0.881891
347.027	0.881486
347.390	0.881466
347.753	0.881325
348.116	0.881419
348.479	0.881458
348.843	0.881380
349.206	0.881270
349.569	0.881469
349.932	0.881759
350.295	0.881925
350.658	0.882302
351.021	0.882694
351.383	0.883013
351.746	0.883425
352.109	0.883809
352.472	0.884437
352.835	0.885117
353.197	0.885939
353.560	0.886520
353.923	0.887032
354.285	0.887968
354.648	0.888554
355.011	0.889391
355.373	0.890068
355.736	0.890755
356.098	0.891490
356.461	0.892201
356.823	0.892610
357.185	0.893157
357.548	0.893996
357.910	0.894732
358.272	0.895237
358.635	0.896107
358.997	0.896856
359.359	0.897631
359.721	0.898411
360.083	0.899186
360.445	0.899903
360.807	0.900782
361.169	0.901677
361.531	0.902543
361.893	0.903592
362.255	0.904407
362.617	0.905240
362.979	0.905982
363.341	0.906810
363.703	0.907672
364.064	0.908505
364.426	0.909214
364.788	0.910007
365.149	0.910620
365.511	0.911189
365.873	0.911606
366.234	0.912269
366.596	0.912574
366.957	0.913183
367.319	0.913688
367.680	0.914345
368.042	0.915016
368.403	0.915724
368.764	0.916413
369.126	0.917059
369.487	0.917637
369.848	0.918242
370.209	0.918815
370.570	0.919570
370.931	0.920025
371.293	0.920673
371.654	0.920993
372.015	0.921239
372.376	0.921462
372.737	0.921789
373.098	0.921977
373.458	0.922213
373.819	0.922572
374.180	0.922713
374.541	0.922975
374.902	0.923127
375.263	0.922935
375.623	0.923231
375.984	0.923431
376.345	0.923757
376.705	0.923800
377.066	0.924217
377.426	0.924353
377.787	0.924442
378.147	0.924598
378.508	0.924676
378.868	0.924946
379.228	0.925283
379.589	0.925335
379.949	0.925397
380.309	0.925410
380.670	0.925447
381.030	0.925365
381.390	0.925414
381.750	0.925430
382.110	0.925556
382.470	0.925548
382.830	0.925364
383.190	0.925420
383.550	0.925407
383.910	0.925466
384.270	0.925245
384.630	0.925276
384.990	0.925150
385.350	0.925046
385.709	0.924985
386.069	0.924882
386.429	0.924888
386.788	0.924889
387.148	0.924441
387.508	0.924235
387.867	0.923910
388.227	0.923871
388.586	0.923717
388.946	0.923536
389.305	0.923252
389.665	0.922856
390.024	0.922438
390.383	0.922062
390.743	0.921864
391.102	0.921771
391.461	0.921326
391.820	0.921130
392.179	0.920808
392.539	0.920516
392.898	0.920167
393.257	0.919926
393.616	0.919797
393.975	0.919547
394.334	0.919213
394.693	0.918778
395.051	0.918347
395.410	0.918042
395.769	0.917780
396.128	0.917441
396.487	0.916984
396.845	0.916704
397.204	0.916269
397.563	0.915717
397.921	0.915150
398.280	0.914686
398.638	0.914269
398.997	0.913923
399.355	0.913626
399.714	0.913255
400.072	0.912813
400.431	0.912168
400.789	0.911763
401.147	0.911350
401.506	0.910771
401.864	0.910518
402.222	0.910241
402.580	0.909777
402.938	0.909430
403.297	0.909046
403.655	0.908352
404.013	0.907830
404.371	0.907366
404.729	0.906761
405.087	0.906225
405.444	0.905784
405.802	0.905030
406.160	0.904505
406.518	0.903901
406.876	0.903111
407.233	0.902446
407.591	0.901937
407.949	0.901332
408.306	0.900846
408.664	0.900297
409.022	0.899581
409.379	0.898927
409.737	0.898474
410.094	0.897666
410.451	0.897010
410.809	0.896196
411.166	0.895556
411.523	0.894707
411.881	0.893924
412.238	0.893145
412.595	0.892408
412.952	0.891560
413.310	0.890926
413.667	0.889974
414.024	0.889109
414.381	0.888464
414.738	0.887985
415.095	0.886997
415.452	0.886150
415.809	0.885287
416.165	0.884468
416.522	0.883517
416.879	0.882839
417.236	0.881909
417.593	0.881068
417.949	0.880214
418.306	0.879231
418.663	0.878060
419.019	0.877101
419.376	0.876258
419.732	0.875374
420.089	0.874413
420.445	0.873434
420.802	0.872107
421.158	0.871000
421.514	0.869932
421.871	0.868823
422.227	0.867615
422.583	0.866492
422.939	0.865286
423.295	0.864125
423.652	0.862844
424.008	0.861474
424.364	0.860099
424.720	0.859102
425.076	0.857914
425.432	0.856827
425.788	0.855564
426.143	0.854229
426.499	0.852768
426.855	0.851368
427.211	0.849833
427.567	0.848412
427.922	0.847175
428.278	0.845759
428.634	0.844355
428.989	0.842593
429.345	0.840826
429.700	0.839193
430.056	0.837490
430.411	0.836021
430.767	0.834343
431.122	0.832618
431.478	0.830952
431.833	0.829100
432.188	0.827228
432.543	0.825115
432.899	0.823465
433.254	0.821668
433.609	0.819811
433.964	0.817902
434.319	0.816057
434.674	0.814177
435.029	0.812324
435.384	0.810163
435.739	0.807973
436.094	0.805901
436.449	0.803688
436.804	0.801598
437.158	0.799472
437.513	0.797327
437.868	0.795249
438.223	0.792991
438.577	0.790726
438.932	0.788341
439.287	0.786071
439.641	0.783812
439.996	0.781185
440.350	0.778854
440.704	0.776424
441.059	0.774031
441.413	0.771762
441.768	0.769371
442.122	0.766885
442.476	0.764477
442.830	0.761997
443.185	0.759485
443.539	0.756776
443.893	0.754320
444.247	0.751851
444.601	0.749240
444.955	0.746559
445.309	0.743955
445.663	0.741414
446.017	0.738841
446.371	0.736169
446.724	0.733621
447.078	0.730958
447.432	0.728375
447.786	0.725688
448.139	0.723067
448.493	0.720461
448.847	0.717925
449.200	0.715180
449.554	0.712395
449.907	0.709843
450.261	0.707275
450.614	0.704666
450.968	0.702070
451.321	0.699452
451.674	0.696723
452.027	0.693983
452.381	0.691381
452.734	0.688717
453.087	0.686155
453.440	0.683636
453.793	0.680969
454.146	0.678342
454.499	0.675591
454.852	0.672982
455.205	0.670445
455.558	0.668081
455.911	0.665603
456.264	0.662961
456.617	0.660542
456.970	0.658080
457.322	0.655669
457.675	0.653371
458.028	0.651158
458.380	0.648917
458.733	0.646562
459.086	0.644167
459.438	0.641707
459.791	0.639308
460.143	0.636900
460.496	0.634559
460.848	0.632193
461.200	0.629825
461.553	0.627582
461.905	0.625197
462.257	0.622919
462.609	0.620708
462.961	0.618616
463.314	0.616500
463.666	0.614333
464.018	0.612242
464.370	0.610128
464.722	0.608014
465.074	0.605886
465.426	0.603712
465.777	0.601516
466.129	0.599317
466.481	0.597182
466.833	0.594875
467.184	0.592528
467.536	0.590333
467.888	0.588297
468.239	0.586236
468.591	0.584332
468.943	0.582378
469.294	0.580436
469.646	0.578451
469.997	0.576629
470.348	0.574727
470.700	0.572947
471.051	0.571378
471.402	0.569680
471.754	0.568013
472.105	0.566231
472.456	0.564492
472.807	0.562854
473.158	0.561137
473.509	0.559629
473.860	0.558076
474.211	0.556512
474.562	0.554811
474.913	0.553113
475.264	0.551418
475.615	0.549732
475.966	0.548241
476.316	0.546773
476.667	0.545289
477.018	0.543892
477.368	0.542303
477.719	0.540704
478.070	0.539101
478.420	0.537637
478.771	0.536266
479.121	0.535007
479.472	0.533555
479.822	0.532111
480.172	0.530704
480.523	0.529245
480.873	0.527817
481.223	0.526440
481.573	0.525032
481.924	0.523695
482.274	0.522117
482.624	0.521069
482.974	0.520253
483.324	0.519488
483.674	0.518380
484.024	0.516870
484.374	0.515373
484.724	0.513977
485.073	0.512394
485.423	0.510760
485.773	0.509165
486.123	0.507771
486.472	0.506066
486.822	0.504124
487.172	0.502077
487.521	0.500048
487.871	0.498133
488.220	0.496263
488.570	0.494317
488.919	0.493054
489.268	0.492448
489.618	0.492181
489.967	0.491945
490.316	0.491543
490.666	0.490780
491.015	0.489703
491.364	0.488568
491.713	0.487276
492.062	0.485856
492.411	0.484505
492.760	0.483143
493.109	0.481841
493.458	0.480607
493.807	0.479370
494.156	0.478204
494.505	0.476989
494.853	0.475845
495.202	0.474492
495.551	0.473230
495.900	0.471915
496.248	0.470641
496.597	0.469462
496.945	0.468244
497.294	0.466988
497.642	0.465663
497.991	0.464257
498.339	0.462895
498.688	0.461433
499.036	0.460107
499.384	0.458780
499.732	0.457576
500.081	0.456345
500.429	0.455082
500.777	0.453835
501.125	0.452488
501.473	0.451183
501.821	0.449880
502.169	0.448699
502.517	0.447506
502.865	0.446305
503.213	0.445156
503.561	0.443984
503.908	0.442750
504.256	0.441456
504.604	0.440230
504.952	0.439071
505.299	0.437961
505.647	0.436816
505.994	0.435721
506.342	0.434644
506.689	0.433512
507.037	0.432456
507.384	0.431332
507.732	0.430338
508.079	0.429404
508.426	0.428372
508.774	0.427372
509.121	0.426337
509.468	0.425348
509.815	0.424262
510.162	0.423267
510.509	0.422296
510.856	0.421218
511.203	0.420239
511.550	0.419221
511.897	0.418183
512.244	0.417175
512.591	0.416069
512.938	0.415119
513.284	0.414164
513.631	0.413160
513.978	0.412166
514.324	0.411215
514.671	0.410316
515.018	0.409317
515.364	0.408264
515.711	0.407217
516.057	0.406104
516.403	0.405162
516.750	0.404121
517.096	0.403151
517.443	0.402159
517.789	0.401134
518.135	0.400162
518.481	0.399164
518.827	0.398144
519.173	0.397225
519.519	0.396270
519.865	0.395443
520.211	0.394481
520.557	0.393479
520.903	0.392495
521.249	0.391564
521.595	0.390688
521.941	0.389780
522.287	0.388830
522.632	0.387851
522.978	0.386918
523.324	0.386050
523.669	0.385110
524.015	0.384184
524.360	0.383282
524.706	0.382300
525.051	0.381293
525.397	0.380255
525.742	0.379187
526.087	0.378125
526.433	0.377170
526.778	0.376166
527.123	0.375122
527.468	0.374108
527.813	0.373071
528.158	0.371916
528.504	0.370765
528.849	0.369604
529.193	0.368399
529.538	0.367137
529.883	0.365987
530.228	0.364853
530.573	0.363554
530.918	0.362386
531.263	0.361128
531.607	0.359913
531.952	0.358867
532.296	0.357796
532.641	0.356629
532.986	0.355586
533.330	0.354431
533.675	0.353163
534.019	0.351797
534.363	0.350491
534.708	0.349002
535.052	0.347536
535.396	0.346056
535.741	0.344527
536.085	0.343026
536.429	0.341647
536.773	0.340127
537.117	0.338765
537.461	0.337407
537.805	0.336053
538.149	0.334668
538.493	0.333261
538.837	0.331960
539.181	0.330547
539.524	0.329091
539.868	0.327579
540.212	0.325936
540.556	0.324269
540.899	0.322663
541.243	0.320963
541.586	0.319351
541.930	0.317837
542.273	0.316285
542.617	0.314620
542.960	0.312958
543.304	0.311142
543.647	0.309263
543.990	0.307432
544.333	0.305613
544.677	0.303684
545.020	0.301855
545.363	0.300063
545.706	0.298293
546.049	0.296597
546.392	0.294819
546.735	0.293077
547.078	0.291290
547.421	0.289521
547.764	0.287709
548.106	0.285856
548.449	0.283936
548.792	0.282039
549.135	0.280015
549.477	0.277816
549.820	0.275579
550.162	0.273386
550.505	0.271309
550.847	0.269385
551.190	0.267474
551.532	0.265552
551.875	0.263628
552.217	0.261758
552.559	0.259755
552.901	0.257642
553.244	0.255536
553.586	0.253365
553.928	0.251214
554.270	0.248790
554.612	0.246446
554.954	0.244161
555.296	0.241938
555.638	0.239819
555.980	0.237733
556.322	0.235556
556.663	0.233400
557.005	0.231139
557.347	0.228945
557.689	0.226588
558.030	0.224391
558.372	0.222176
558.713	0.219898
559.055	0.217789
559.396	0.215672
559.738	0.213495
560.079	0.211383
560.421	0.209246
560.762	0.207225
561.103	0.205081
561.444	0.203012
561.786	0.200874
562.127	0.198647
562.468	0.196481
562.809	0.194248
563.150	0.192096
563.491	0.189968
563.832	0.187951
564.173	0.185985
564.514	0.184001
564.855	0.182021
565.195	0.180030
565.536	0.178107
565.877	0.176154
566.218	0.174275
566.558	0.172468
566.899	0.170801
567.239	0.169260
567.580	0.167704
567.920	0.166126
568.261	0.164371
568.601	0.162611
568.941	0.160826
569.282	0.158905
569.622	0.156961
569.962	0.155020
570.302	0.153043
570.643	0.150971
570.983	0.148869
571.323	0.146615
571.663	0.144352
572.003	0.142059
572.343	0.139744
572.683	0.137463
573.022	0.135294
573.362	0.133211
573.702	0.131196
574.042	0.129201
574.381	0.127189
574.721	0.125236
575.061	0.123611
575.400	0.115730
575.740	0.106221
576.079	0.097346
576.419	0.089571
576.758	0.082445
577.097	0.076838
577.437	0.072322
577.776	0.068236
578.115	0.063199
578.454	0.057749
578.794	0.051237
579.133	0.043969
579.472	0.035872
579.811	0.027220
580.150	0.019477
580.489	0.013811
580.828	0.010427
581.167	0.009267
581.505	0.010307
581.844	0.013970
582.183	0.019845
582.522	0.027487
582.860	0.036508
583.199	0.046726
583.538	0.058318
583.876	0.069444
584.215	0.078726
584.553	0.084904
584.891	0.088368
585.230	0.089391
585.568	0.089145
585.906	0.088758
586.245	0.088259
586.583	0.087660
586.921	0.087041
587.259	0.086362
587.597	0.085733
587.935	0.085156
588.273	0.084718
588.611	0.084369
588.949	0.084023
589.287	0.083698
589.625	0.083408
589.963	0.083156
590.300	0.082930
590.638	0.082766
590.976	0.082696
591.313	0.082595
591.651	0.082550
591.989	0.082334
592.326	0.081941
592.664	0.081559
593.001	0.081076
593.338	0.080504
593.676	0.079863
594.013	0.079083
594.350	0.078207
594.687	0.077307
595.025	0.076495
595.362	0.075740
595.699	0.075151
596.036	0.074784
596.373	0.074420
596.710	0.074227
597.047	0.074045
597.384	0.073915
597.720	0.073819
598.057	0.073618
598.394	0.073402
598.731	0.073119
599.067	0.072772
599.404	0.072325
599.741	0.071766
600.077	0.071211
600.414	0.070637
600.750	0.070077
601.087	0.069511
601.423	0.068969
601.759	0.068435
602.096	0.067905
602.432	0.067377
602.768	0.066869
603.104	0.066409
603.440	0.065960
603.776	0.065566
604.112	0.065182
604.448	0.064802
604.784	0.064370
605.120	0.063960
605.456	0.063606
605.792	0.063301
606.128	0.063072
606.463	0.062808
606.799	0.062591
607.135	0.062428
607.470	0.062200
607.806	0.061958
608.142	0.061674
608.477	0.061499
608.812	0.061360
609.148	0.061164
609.483	0.060966
609.819	0.060763
610.154	0.060640
610.489	0.060447
610.824	0.060188
611.159	0.060035
611.494	0.059788
611.830	0.059555
612.165	0.059218
612.500	0.058946
612.834	0.058757
613.169	0.058586
613.504	0.058305
613.839	0.058003
614.174	0.057634
614.509	0.057267
614.843	0.056785
615.178	0.056401
615.512	0.055966
615.847	0.055574
616.182	0.055025
616.516	0.054533
616.850	0.053929
617.185	0.053503
617.519	0.053064
617.853	0.052705
618.188	0.052432
618.522	0.052195
618.856	0.051920
619.190	0.051659
619.524	0.051314
619.858	0.051171
620.192	0.051125
620.526	0.051182
620.860	0.051197
621.194	0.051307
621.528	0.051467
621.862	0.051607
622.195	0.051630
622.529	0.051576
622.863	0.051523
623.196	0.051448
623.530	0.051169
623.864	0.050679
624.197	0.050183
624.530	0.049727
624.864	0.049161
625.197	0.048597
625.531	0.047961
625.864	0.047533
626.197	0.047157
626.530	0.046828
626.863	0.046533
627.196	0.046366
627.529	0.046413
627.862	0.046448
628.195	0.046388
628.528	0.046266
628.861	0.046086
629.194	0.045855
629.527	0.045534
629.860	0.045197
630.192	0.044818
630.525	0.044523
630.858	0.044178
631.190	0.043691
631.523	0.043309
631.855	0.042898
632.188	0.042647
632.520	0.042438
632.852	0.042432
633.185	0.042401
633.517	0.042478
633.849	0.042705
634.182	0.042867
634.514	0.043085
634.846	0.043308
635.178	0.043423
635.510	0.043473
635.842	0.043522
636.174	0.043484
636.506	0.043311
636.837	0.043207
637.169	0.042975
637.501	0.042574
637.833	0.042295
638.164	0.041872
638.496	0.041281
638.828	0.040767
639.159	0.040375
639.491	0.039901
639.822	0.039432
640.154	0.039061
640.485	0.038689
640.816	0.038313
641.147	0.038148
641.479	0.037752
641.810	0.037566
642.141	0.037584
642.472	0.037465
642.803	0.037347
643.134	0.037309
643.465	0.037261
643.796	0.037272
644.127	0.037230
644.458	0.037206
644.789	0.037053
645.119	0.037114
645.450	0.037165
645.781	0.037320
646.111	0.037634
646.442	0.038095
646.773	0.038565
647.103	0.038881
647.433	0.038999
647.764	0.038933
648.094	0.038725
648.425	0.038363
648.755	0.037951
649.085	0.037406
649.415	0.036861
649.745	0.036277
650.075	0.035545
650.405	0.034842
650.735	0.034187
651.065	0.033554
651.395	0.033064
651.725	0.032666
652.055	0.032316
652.385	0.032605
652.715	0.035131
653.044	0.021203
653.374	0.014780
653.704	0.011086
654.033	0.008664
654.363	0.006967
654.692	0.005729
655.022	0.004776
655.351	0.004029
655.680	-0.000000
656.010	-0.000000
656.339	-0.000000
656.668	-0.000000
656.997	-0.000000
657.326	-0.007602
657.655	-0.009407
657.984	-0.011242
658.313	-0.013292
658.642	-0.015870
658.971	-0.019496
659.300	-0.025245
659.629	-0.030911
659.958	-0.031004
660.286	-0.026496
660.615	-0.017877
660.944	-0.006572
661.272	0.004904
661.601	0.014186
661.929	0.020310
662.258	0.024087
662.586	0.026243
662.915	0.027411
663.243	0.028162
663.571	0.028411
663.899	0.028571
664.228	0.028510
664.556	0.028149
664.884	0.027987
665.212	0.027563
665.540	0.027292
665.868	0.027043
666.196	0.026785
666.524	0.026603
666.852	0.026279
667.179	0.026195
667.507	0.026069
667.835	0.026043
668.162	0.026181
668.490	0.026341
668.818	0.026803
669.145	0.027105
669.473	0.027551
669.800	0.027885
670.127	0.028353
670.455	0.028485
670.782	0.028439
671.109	0.028249
671.436	0.027927
671.764	0.027507
672.091	0.026877
672.418	0.026171
672.745	0.025534
673.072	0.024664
673.399	0.023838
673.726	0.022946
674.053	0.022184
674.379	0.021575
674.706	0.021305
675.033	0.021279
675.359	0.021605
675.686	0.022237
676.013	0.023020
676.339	0.023796
676.666	0.024503
676.992	0.024975
677.318	0.025288
677.645	0.025598
677.971	0.025657
678.297	0.025488
678.624	0.025196
678.950	0.024822
679.276	0.024435
679.602	0.023955
679.928	0.023312
680.254	0.022701
680.580	0.022288
680.906	0.021806
681.232	0.021378
681.558	0.021251
681.883	0.021378
682.209	0.021698
682.535	0.022110
682.860	0.022450
683.186	0.022817
683.511	0.023208
683.837	0.023450
684.162	0.023478
684.488	0.023294
684.813	0.023010
685.138	0.022381
685.464	0.021790
685.789	0.021045
686.114	0.020321
686.439	0.019637
686.764	0.018780
687.089	0.018070
687.414	0.017507
687.739	0.016990
688.064	0.016765
688.389	0.016894
688.714	0.017388
689.039	0.017809
689.363	0.018423
689.688	0.018925
690.013	0.019407
690.337	0.019830
690.662	0.020035
690.986	0.020130
691.311	0.020150
691.635	0.020020
691.959	0.019722
692.284	0.019432
692.608	0.019095
692.932	0.018590
693.256	0.018199
693.580	0.017772
693.904	0.017566
694.228	0.017646
694.552	0.017662
694.876	0.017911
695.200	0.018258
695.524	0.018796
695.848	0.019095
696.172	0.019287
696.495	0.019404
696.819	0.019340
697.143	0.019140
697.466	0.018859
697.790	0.018391
698.113	0.017966
698.437	0.017496
698.760	0.016969
699.083	0.016365
699.407	0.015846
699.730	0.015749
700.053	0.015907
700.376	0.016250
700.699	0.016710
701.022	0.017233
701.345	0.017689
701.668	0.018108
701.991	0.018395
702.314	0.018495
702.637	0.018295
702.960	0.018289
703.283	0.017828
703.605	0.017394
703.928	0.017090
704.251	0.016973
704.573	0.017334
704.896	0.017730
705.218	0.018297
705.540	0.018808
705.863	0.019424
706.185	0.019953
706.507	0.020000
706.830	0.020043
707.152	0.019901
707.474	0.019479
707.796	0.019124
708.118	0.018414
708.440	0.017694
708.762	0.016919
709.084	0.016218
709.406	0.015615
709.728	0.015101
710.049	0.014839
710.371	0.014679
710.693	0.014892
711.014	0.015520
711.336	0.016002
711.658	0.016620
711.979	0.017360
712.301	0.018001
712.622	0.018577
712.943	0.018810
713.265	0.019059
713.586	0.019214
713.907	0.019290
714.228	0.019032
714.549	0.018509
714.870	0.018040
715.191	0.017511
715.512	0.016918
715.833	0.016420
716.154	0.015991
716.475	0.015822
716.796	0.015692
717.117	0.015781
717.437	0.015889
717.758	0.016213
718.078	0.016710
718.399	0.017084
718.719	0.017363
719.040	0.017458
719.360	0.017364
719.681	0.017329
720.001	0.017172
720.321	0.016998
720.642	0.016663
720.962	0.016439
721.282	0.016345
721.602	0.016192
721.922	0.016134
722.242	0.016310
722.562	0.016807
722.882	0.017322
723.202	0.017820
723.521	0.018418
723.841	0.018989
724.161	0.019649
724.481	0.019980
724.800	0.020180
725.120	0.020288
725.439	0.020292
725.759	0.020323
726.078	0.020186
726.398	0.020061
726.717	0.019928
727.036	0.019803
727.355	0.019629
727.675	0.019454
727.994	0.019577
728.313	0.019731
728.632	0.020049
728.951	0.020413
729.270	0.020539
729.589	0.020578
729.908	0.020637
730.226	0.020556
730.545	0.020335
730.864	0.020116
731.182	0.020036
731.501	0.019952
731.820	0.019922
732.138	0.019864
732.457	0.019787
732.775	0.019762
733.093	0.019824
733.412	0.019726
733.730	0.019634
734.048	0.019669
734.367	0.019885
734.685	0.019787
735.003	0.019823
735.321	0.019560
735.639	0.019199
735.957	0.018971
736.275	0.018832
736.593	0.018604
736.910	0.018790
737.228	0.018974
737.546	0.019206
737.863	0.019279
738.181	0.019652
738.499	0.019779
738.816	0.019992
739.134	0.020244
739.451	0.020232
739.768	0.020188
740.086	0.020186
740.403	0.020099
740.720	0.020043
741.038	0.020041
741.355	0.020008
741.672	0.019920
741.989	0.019794
742.306	0.019974
742.623	0.020116
742.940	0.020619
743.257	0.020999
743.573	0.021574
743.890	0.021873
744.207	0.022089
744.523	0.022235
744.840	0.022262
745.157	0.022428
745.473	0.022519
745.790	0.022557
746.106	0.022655
746.422	0.022535
746.739	0.022465
747.055	0.022367
747.371	0.022324
747.687	0.022445
748.004	0.022482
748.320	0.022694
748.636	0.022743
748.952	0.022961
749.268	0.022954
749.584	0.022745
749.899	0.022502
750.215	0.022350
750.531	0.022310
750.847	0.022280
751.162	0.022155
751.478	0.022146
751.793	0.022128
752.109	0.022305
752.424	0.022477
752.740	0.022698
753.055	0.023076
753.370	0.023469
753.686	0.023962
754.001	0.024328
754.316	0.024544
754.631	0.024860
754.946	0.025183
755.261	0.025447
755.576	0.025584
755.891	0.025559
756.206	0.025667
756.521	0.025651
756.836	0.025719
757.150	0.025616
757.465	0.025530
757.780	0.025569
758.094	0.025619
758.409	0.025545
758.723	0.025475
759.038	0.025286
759.352	0.025159
759.667	0.024843
759.981	0.024824
760.295	0.024725
760.609	0.024731
760.923	0.024738
761.238	0.024756
761.552	0.024804
761.866	0.025027
762.180	0.025301
762.493	0.025740
762.807	0.026132
763.121	0.026626
763.435	0.026881
763.749	0.026950
764.062	0.026922
764.376	0.026743
764.689	0.026479
765.003	0.026199
765.316	0.025824
765.630	0.025601
765.943	0.025458
766.257	0.025448
766.570	0.025729
766.883	0.025979
767.196	0.026399
767.509	0.026757
767.822	0.027176
768.135	0.027652
768.448	0.027940
768.761	0.028268
769.074	0.028408
769.387	0.028354
769.700	0.028263
770.013	0.027953
770.325	0.027720
770.638	0.027477
770.950	0.027241
771.263	0.027206
771.575	0.027107
771.888	0.027027
772.200	0.026688
772.513	0.026303
772.825	0.026117
773.137	0.025947
773.449	0.025880
773.761	0.025805
774.074	0.025859
774.386	0.026240
774.698	0.026280
775.010	0.026408
775.321	0.026673
775.633	0.027343
775.945	0.027849
776.257	0.028409
776.568	0.028778
776.880	0.029105
777.192	0.029582
777.503	0.029781
777.815	0.029758
778.126	0.029785
778.438	0.029591
778.749	0.029544
779.060	0.029307
779.372	0.029202
779.683	0.029014
779.994	0.028974
780.305	0.028824
780.616	0.028576
780.927	0.028585
781.238	0.028706
781.549	0.028671
781.860	0.028709
782.171	0.028779
782.481	0.028975
782.792	0.028981
783.103	0.028844
783.413	0.028816
783.724	0.028855
784.034	0.028892
784.345	0.028796
784.655	0.028629
784.966	0.028900
785.276	0.029203
785.586	0.029059
785.896	0.029016
786.207	0.029304
786.517	0.029584
786.827	0.029665
787.137	0.029736
787.447	0.029961
787.757	0.030081
788.066	0.030174
788.376	0.030223
788.686	0.030262
788.996	0.030365
789.305	0.030379
789.615	0.030283
789.925	0.030118
790.234	0.030089
790.544	0.030161
790.853	0.029842
791.162	0.029785
791.472	0.029890
791.781	0.029942
792.090	0.030104
792.399	0.030459
792.708	0.030489
793.017	0.030327
793.326	0.030156
793.635	0.029850
793.944	0.029562
794.253	0.029370
794.562	0.029315
794.871	0.029111
795.179	0.028702
795.488	0.028346
795.797	0.027968
796.105	0.027969
796.414	0.028174
796.722	0.028717
797.031	0.029270
797.339	0.030137
797.647	0.030736
797.956	0.031064
798.264	0.031573
798.572	0.032032
798.880	0.032123
799.188	0.032191
799.496	0.032117
799.804	0.031899
800.112	0.031643
>>>>>>>>>> END of Data <<<<<<<<<<
