Date	2021年06月15日火曜日 04時32分14秒
Spectrometers	USB2+H05879
ダーク	使用
リファレンス	使用
積分時間[msec]	10
平均回数	280
ｽﾑｰｼﾞﾝｸﾞ	10
Electrical Dark	USE
ピクセル数	2048
計測モード	吸光度
保存開始波長[nm]	190.664
保存終了波長[nm]	884.878
保存ﾋﾟｯﾁ波長[nm]	全波長

>>>>>>>>>> Data Start <<<<<<<<<<<<
190.664	0.000000
191.040	0.000000
191.415	0.000000
191.791	-2.648480
192.166	-0.606227
192.542	-0.886216
192.917	0.000000
193.293	-0.420461
193.668	-0.289588
194.044	-1.001854
194.419	0.000000
194.794	-1.350623
195.170	-1.272898
195.545	-1.186080
195.920	-1.053914
196.296	-0.941110
196.671	-0.791753
197.046	-0.634869
197.421	-0.585839
197.796	-0.587357
198.171	-0.550283
198.546	-0.514480
198.922	-0.472927
199.297	-0.452385
199.672	-0.433760
200.047	-0.411870
200.422	-0.382332
200.796	-0.376156
201.171	-0.364616
201.546	-0.366051
201.921	-0.358933
202.296	-0.355925
202.671	-0.340117
203.045	-0.315680
203.420	-0.304513
203.795	-0.286007
204.170	-0.275907
204.544	-0.268776
204.919	-0.275779
205.294	-0.271742
205.668	-0.254520
206.043	-0.248968
206.417	-0.251406
206.792	-0.242167
207.166	-0.240720
207.541	-0.239240
207.915	-0.243676
208.289	-0.234853
208.664	-0.233414
209.038	-0.232649
209.412	-0.219369
209.787	-0.205961
210.161	-0.192002
210.535	-0.194592
210.909	-0.185387
211.284	-0.180916
211.658	-0.187647
212.032	-0.193351
212.406	-0.198212
212.780	-0.194366
213.154	-0.193831
213.528	-0.196839
213.902	-0.191970
214.276	-0.180976
214.650	-0.179073
215.024	-0.171194
215.398	-0.166787
215.772	-0.156403
216.145	-0.155547
216.519	-0.150700
216.893	-0.144410
217.267	-0.144906
217.640	-0.147606
218.014	-0.137814
218.388	-0.125223
218.761	-0.137572
219.135	-0.133293
219.508	-0.139469
219.882	-0.140759
220.256	-0.136967
220.629	-0.133230
221.003	-0.141655
221.376	-0.139390
221.749	-0.141044
222.123	-0.148014
222.496	-0.151162
222.869	-0.147521
223.243	-0.140736
223.616	-0.146715
223.989	-0.149964
224.362	-0.145490
224.736	-0.152498
225.109	-0.151357
225.482	-0.145444
225.855	-0.151219
226.228	-0.161301
226.601	-0.156303
226.974	-0.148817
227.347	-0.136612
227.720	-0.133349
228.093	-0.135866
228.466	-0.142111
228.839	-0.139428
229.212	-0.142679
229.585	-0.152659
229.957	-0.150552
230.330	-0.146684
230.703	-0.148136
231.076	-0.151414
231.448	-0.149319
231.821	-0.147302
232.194	-0.148427
232.566	-0.148809
232.939	-0.154890
233.311	-0.164673
233.684	-0.157519
234.056	-0.153596
234.429	-0.151063
234.801	-0.155990
235.174	-0.154850
235.546	-0.155362
235.918	-0.151163
236.291	-0.148156
236.663	-0.137564
237.035	-0.138343
237.408	-0.122932
237.780	-0.110666
238.152	-0.109326
238.524	-0.116280
238.896	-0.114741
239.268	-0.117387
239.641	-0.122439
240.013	-0.110548
240.385	-0.097472
240.757	-0.095412
241.129	-0.093411
241.500	-0.095922
241.872	-0.094517
242.244	-0.091130
242.616	-0.087875
242.988	-0.093982
243.360	-0.083003
243.731	-0.081280
244.103	-0.086868
244.475	-0.093086
244.847	-0.083029
245.218	-0.082131
245.590	-0.083892
245.961	-0.081173
246.333	-0.077785
246.705	-0.078904
247.076	-0.071854
247.448	-0.064369
247.819	-0.071828
248.190	-0.067425
248.562	-0.068443
248.933	-0.062494
249.305	-0.063683
249.676	-0.053192
250.047	-0.054296
250.418	-0.058609
250.790	-0.051654
251.161	-0.056605
251.532	-0.057304
251.903	-0.049815
252.274	-0.041148
252.645	-0.034182
253.016	-0.042653
253.387	-0.049373
253.758	-0.054275
254.129	-0.053277
254.500	-0.050149
254.871	-0.048739
255.242	-0.049863
255.613	-0.052109
255.984	-0.057874
256.355	-0.052261
256.725	-0.051058
257.096	-0.049300
257.467	-0.054729
257.838	-0.055967
258.208	-0.059114
258.579	-0.056968
258.949	-0.059638
259.320	-0.058021
259.690	-0.060445
260.061	-0.061877
260.431	-0.065104
260.802	-0.059241
261.172	-0.053588
261.543	-0.046901
261.913	-0.043340
262.283	-0.043447
262.654	-0.049259
263.024	-0.049197
263.394	-0.050623
263.764	-0.052242
264.135	-0.053194
264.505	-0.054799
264.875	-0.054747
265.245	-0.057878
265.615	-0.061658
265.985	-0.061139
266.355	-0.060168
266.725	-0.059125
267.095	-0.055683
267.465	-0.049284
267.835	-0.054905
268.205	-0.065231
268.575	-0.064124
268.944	-0.061955
269.314	-0.064097
269.684	-0.062198
270.054	-0.064421
270.423	-0.059787
270.793	-0.057162
271.163	-0.050585
271.532	-0.046919
271.902	-0.045798
272.271	-0.043383
272.641	-0.037735
273.010	-0.039200
273.380	-0.037455
273.749	-0.033453
274.119	-0.031743
274.488	-0.025102
274.857	-0.026924
275.227	-0.028106
275.596	-0.025175
275.965	-0.012355
276.335	-0.007655
276.704	-0.007740
277.073	-0.011644
277.442	-0.013500
277.811	-0.016565
278.180	-0.015029
278.549	-0.016490
278.918	-0.017546
279.287	-0.015614
279.656	-0.014816
280.025	-0.016985
280.394	-0.024364
280.763	-0.018958
281.132	-0.011900
281.501	-0.010618
281.869	-0.015988
282.238	-0.017640
282.607	-0.020946
282.976	-0.018302
283.344	-0.012093
283.713	-0.021567
284.081	-0.029255
284.450	-0.031394
284.819	-0.024718
285.187	-0.023070
285.556	-0.016868
285.924	-0.012806
286.292	-0.013899
286.661	-0.015913
287.029	-0.021064
287.398	-0.019338
287.766	-0.019767
288.134	-0.015429
288.502	-0.017469
288.871	-0.016960
289.239	-0.017194
289.607	-0.014705
289.975	-0.021729
290.343	-0.019707
290.711	-0.025891
291.079	-0.026158
291.447	-0.020901
291.815	-0.016821
292.183	-0.011480
292.551	-0.011433
292.919	-0.007745
293.287	-0.004813
293.655	-0.006013
294.022	-0.006272
294.390	-0.000945
294.758	-0.001439
295.126	-0.004579
295.493	0.001865
295.861	0.008351
296.229	0.008179
296.596	0.008736
296.964	0.009269
297.331	0.012267
297.699	0.027287
298.066	0.038184
298.434	0.044896
298.801	0.041739
299.168	0.038689
299.536	0.043949
299.903	0.040521
300.270	0.041202
300.638	0.042484
301.005	0.048101
301.372	0.048099
301.739	0.055242
302.106	0.059091
302.473	0.074183
302.840	0.084612
303.207	0.096998
303.574	0.104997
303.941	0.118423
304.308	0.125625
304.675	0.137226
305.042	0.151043
305.409	0.162935
305.776	0.170591
306.143	0.183419
306.509	0.198818
306.876	0.220346
307.243	0.237463
307.610	0.260656
307.976	0.279990
308.343	0.301051
308.709	0.322898
309.076	0.346993
309.442	0.367254
309.809	0.386847
310.175	0.405355
310.542	0.424719
310.908	0.439374
311.275	0.454905
311.641	0.473678
312.007	0.492447
312.373	0.510802
312.740	0.525743
313.106	0.539741
313.472	0.560122
313.838	0.577753
314.204	0.593631
314.570	0.604698
314.936	0.615563
315.302	0.626428
315.668	0.636378
316.034	0.648262
316.400	0.658919
316.766	0.667701
317.132	0.677167
317.498	0.684358
317.864	0.688479
318.230	0.694793
318.595	0.700383
318.961	0.706099
319.327	0.711158
319.692	0.714779
320.058	0.715891
320.424	0.718441
320.789	0.721646
321.155	0.722779
321.520	0.724706
321.886	0.727818
322.251	0.729675
322.616	0.731646
322.982	0.733735
323.347	0.735141
323.712	0.736028
324.078	0.735870
324.443	0.736550
324.808	0.736739
325.173	0.737544
325.539	0.738118
325.904	0.738451
326.269	0.739098
326.634	0.739316
326.999	0.738738
327.364	0.738994
327.729	0.739683
328.094	0.739608
328.459	0.739489
328.823	0.738657
329.188	0.738660
329.553	0.737638
329.918	0.737759
330.283	0.737751
330.647	0.737393
331.012	0.737177
331.377	0.736585
331.741	0.736138
332.106	0.735502
332.470	0.735098
332.835	0.734434
333.199	0.734455
333.564	0.733837
333.928	0.733500
334.293	0.733273
334.657	0.732897
335.021	0.732530
335.386	0.732022
335.750	0.731493
336.114	0.730845
336.478	0.730842
336.843	0.730642
337.207	0.730565
337.571	0.730262
337.935	0.730032
338.299	0.729476
338.663	0.728965
339.027	0.728842
339.391	0.728741
339.755	0.728621
340.119	0.728242
340.483	0.728278
340.846	0.728171
341.210	0.728292
341.574	0.728017
341.938	0.728098
342.301	0.728310
342.665	0.728352
343.029	0.728652
343.392	0.728831
343.756	0.728903
344.119	0.729132
344.483	0.729253
344.846	0.729434
345.210	0.729821
345.573	0.729811
345.937	0.730030
346.300	0.730394
346.663	0.730638
347.027	0.730757
347.390	0.730933
347.753	0.731233
348.116	0.731304
348.479	0.731380
348.843	0.731496
349.206	0.731672
349.569	0.731666
349.932	0.731893
350.295	0.732145
350.658	0.732076
351.021	0.732354
351.383	0.732714
351.746	0.732729
352.109	0.732825
352.472	0.732945
352.835	0.732996
353.197	0.733099
353.560	0.733237
353.923	0.733256
354.285	0.733404
354.648	0.733552
355.011	0.733528
355.373	0.733689
355.736	0.733861
356.098	0.734015
356.461	0.734317
356.823	0.734487
357.185	0.734761
357.548	0.734785
357.910	0.734854
358.272	0.735135
358.635	0.735117
358.997	0.734986
359.359	0.735344
359.721	0.735270
360.083	0.735384
360.445	0.735382
360.807	0.735401
361.169	0.735423
361.531	0.735508
361.893	0.735525
362.255	0.735675
362.617	0.735967
362.979	0.736102
363.341	0.736130
363.703	0.736153
364.064	0.736055
364.426	0.736070
364.788	0.736030
365.149	0.736083
365.511	0.736171
365.873	0.736153
366.234	0.736316
366.596	0.736613
366.957	0.736458
367.319	0.736685
367.680	0.736787
368.042	0.736753
368.403	0.736923
368.764	0.737229
369.126	0.737332
369.487	0.737207
369.848	0.736967
370.209	0.736922
370.570	0.736797
370.931	0.736878
371.293	0.736821
371.654	0.736926
372.015	0.737102
372.376	0.737139
372.737	0.737231
373.098	0.737203
373.458	0.737329
373.819	0.737448
374.180	0.737518
374.541	0.737686
374.902	0.737633
375.263	0.737549
375.623	0.737573
375.984	0.737743
376.345	0.737536
376.705	0.737527
377.066	0.737743
377.426	0.737963
377.787	0.737974
378.147	0.738166
378.508	0.738118
378.868	0.738268
379.228	0.738146
379.589	0.737952
379.949	0.737844
380.309	0.737838
380.670	0.737678
381.030	0.737483
381.390	0.737372
381.750	0.737015
382.110	0.736751
382.470	0.736726
382.830	0.736691
383.190	0.736710
383.550	0.736513
383.910	0.736472
384.270	0.736277
384.630	0.735991
384.990	0.735832
385.350	0.735623
385.709	0.735394
386.069	0.735166
386.429	0.734835
386.788	0.734745
387.148	0.734537
387.508	0.734408
387.867	0.734009
388.227	0.733635
388.586	0.733558
388.946	0.733273
389.305	0.733277
389.665	0.733074
390.024	0.732691
390.383	0.732418
390.743	0.731955
391.102	0.731509
391.461	0.731071
391.820	0.730765
392.179	0.730272
392.539	0.729749
392.898	0.729318
393.257	0.728713
393.616	0.728368
393.975	0.727881
394.334	0.727338
394.693	0.726947
395.051	0.726294
395.410	0.725863
395.769	0.725524
396.128	0.724896
396.487	0.724314
396.845	0.723464
397.204	0.722821
397.563	0.721974
397.921	0.721159
398.280	0.720442
398.638	0.719614
398.997	0.718859
399.355	0.717963
399.714	0.717200
400.072	0.716348
400.431	0.715421
400.789	0.714543
401.147	0.713511
401.506	0.712593
401.864	0.711646
402.222	0.710501
402.580	0.709423
402.938	0.708289
403.297	0.707191
403.655	0.706018
404.013	0.704918
404.371	0.703889
404.729	0.702722
405.087	0.701777
405.444	0.700550
405.802	0.699382
406.160	0.698343
406.518	0.697200
406.876	0.696006
407.233	0.694996
407.591	0.693999
407.949	0.692922
408.306	0.691802
408.664	0.690634
409.022	0.689400
409.379	0.688077
409.737	0.686868
410.094	0.685597
410.451	0.684489
410.809	0.683221
411.166	0.681929
411.523	0.680632
411.881	0.679347
412.238	0.678048
412.595	0.676731
412.952	0.675506
413.310	0.674221
413.667	0.672888
414.024	0.671566
414.381	0.670250
414.738	0.668768
415.095	0.667229
415.452	0.665787
415.809	0.664354
416.165	0.662879
416.522	0.661355
416.879	0.659717
417.236	0.658076
417.593	0.656574
417.949	0.654814
418.306	0.653227
418.663	0.651906
419.019	0.650407
419.376	0.648991
419.732	0.647485
420.089	0.646171
420.445	0.644734
420.802	0.643401
421.158	0.641903
421.514	0.640477
421.871	0.639022
422.227	0.637579
422.583	0.636171
422.939	0.634655
423.295	0.633236
423.652	0.631792
424.008	0.630287
424.364	0.628786
424.720	0.627297
425.076	0.625683
425.432	0.624005
425.788	0.622310
426.143	0.620392
426.499	0.618607
426.855	0.616814
427.211	0.615076
427.567	0.613306
427.922	0.611656
428.278	0.609731
428.634	0.608236
428.989	0.606560
429.345	0.604971
429.700	0.603342
430.056	0.601689
430.411	0.600105
430.767	0.598410
431.122	0.596745
431.478	0.595203
431.833	0.593528
432.188	0.591849
432.543	0.590214
432.899	0.588513
433.254	0.586691
433.609	0.584962
433.964	0.583193
434.319	0.581254
434.674	0.579442
435.029	0.577588
435.384	0.575787
435.739	0.574091
436.094	0.572215
436.449	0.570429
436.804	0.568700
437.158	0.566987
437.513	0.565147
437.868	0.563384
438.223	0.561723
438.577	0.559964
438.932	0.558261
439.287	0.556647
439.641	0.554936
439.996	0.553133
440.350	0.551547
440.704	0.549942
441.059	0.548392
441.413	0.546645
441.768	0.545048
442.122	0.543441
442.476	0.541737
442.830	0.540114
443.185	0.538519
443.539	0.537034
443.893	0.535541
444.247	0.533965
444.601	0.532395
444.955	0.530816
445.309	0.529111
445.663	0.527338
446.017	0.525623
446.371	0.523801
446.724	0.522065
447.078	0.520369
447.432	0.518694
447.786	0.516902
448.139	0.515158
448.493	0.513353
448.847	0.511640
449.200	0.509812
449.554	0.508057
449.907	0.506341
450.261	0.504565
450.614	0.502859
450.968	0.501044
451.321	0.499276
451.674	0.497594
452.027	0.495776
452.381	0.494112
452.734	0.492428
453.087	0.490775
453.440	0.488955
453.793	0.487292
454.146	0.485516
454.499	0.483855
454.852	0.482121
455.205	0.480459
455.558	0.478864
455.911	0.477232
456.264	0.475643
456.617	0.474083
456.970	0.472556
457.322	0.471192
457.675	0.469828
458.028	0.468470
458.380	0.467179
458.733	0.465764
459.086	0.464355
459.438	0.462997
459.791	0.461515
460.143	0.460053
460.496	0.458649
460.848	0.457335
461.200	0.455864
461.553	0.454523
461.905	0.453123
462.257	0.451814
462.609	0.450551
462.961	0.449301
463.314	0.448086
463.666	0.446873
464.018	0.445749
464.370	0.444590
464.722	0.443378
465.074	0.442172
465.426	0.441030
465.777	0.439914
466.129	0.438880
466.481	0.437764
466.833	0.436742
467.184	0.435715
467.536	0.434698
467.888	0.433495
468.239	0.432279
468.591	0.431043
468.943	0.429661
469.294	0.428333
469.646	0.426997
469.997	0.425674
470.348	0.424287
470.700	0.422915
471.051	0.421663
471.402	0.420414
471.754	0.419122
472.105	0.418025
472.456	0.416901
472.807	0.415803
473.158	0.414684
473.509	0.413595
473.860	0.412578
474.211	0.411566
474.562	0.410607
474.913	0.409633
475.264	0.408722
475.615	0.407769
475.966	0.406876
476.316	0.405911
476.667	0.404932
477.018	0.403986
477.368	0.402967
477.719	0.402004
478.070	0.401099
478.420	0.400126
478.771	0.399126
479.121	0.398235
479.472	0.397230
479.822	0.396226
480.172	0.395255
480.523	0.394184
480.873	0.392894
481.223	0.391343
481.573	0.389799
481.924	0.388351
482.274	0.386975
482.624	0.385700
482.974	0.384687
483.324	0.383964
483.674	0.383410
484.024	0.382828
484.374	0.382221
484.724	0.381636
485.073	0.381079
485.423	0.380502
485.773	0.379874
486.123	0.379290
486.472	0.378656
486.822	0.378001
487.172	0.377388
487.521	0.376756
487.871	0.376164
488.220	0.375643
488.570	0.375169
488.919	0.374567
489.268	0.373786
489.618	0.372901
489.967	0.371900
490.316	0.370709
490.666	0.369244
491.015	0.367719
491.364	0.366379
491.713	0.365141
492.062	0.364036
492.411	0.362896
492.760	0.361797
493.109	0.360837
493.458	0.359853
493.807	0.358889
494.156	0.357933
494.505	0.356939
494.853	0.355922
495.202	0.354844
495.551	0.353848
495.900	0.352783
496.248	0.351735
496.597	0.350673
496.945	0.349716
497.294	0.348773
497.642	0.347781
497.991	0.346698
498.339	0.345715
498.688	0.344730
499.036	0.343811
499.384	0.342819
499.732	0.341917
500.081	0.340952
500.429	0.339987
500.777	0.339022
501.125	0.338098
501.473	0.337181
501.821	0.336296
502.169	0.335380
502.517	0.334561
502.865	0.333708
503.213	0.332821
503.561	0.331966
503.908	0.331176
504.256	0.330254
504.604	0.329376
504.952	0.328481
505.299	0.327645
505.647	0.326770
505.994	0.325892
506.342	0.325016
506.689	0.324128
507.037	0.323234
507.384	0.322373
507.732	0.321511
508.079	0.320650
508.426	0.319839
508.774	0.319020
509.121	0.318182
509.468	0.317451
509.815	0.316677
510.162	0.315830
510.509	0.315126
510.856	0.314359
511.203	0.313611
511.550	0.312836
511.897	0.312033
512.244	0.311298
512.591	0.310564
512.938	0.309816
513.284	0.309040
513.631	0.308287
513.978	0.307516
514.324	0.306703
514.671	0.305956
515.018	0.305180
515.364	0.304413
515.711	0.303643
516.057	0.302841
516.403	0.302087
516.750	0.301255
517.096	0.300501
517.443	0.299793
517.789	0.299074
518.135	0.298382
518.481	0.297623
518.827	0.296945
519.173	0.296259
519.519	0.295492
519.865	0.294762
520.211	0.294074
520.557	0.293347
520.903	0.292599
521.249	0.291923
521.595	0.291199
521.941	0.290460
522.287	0.289700
522.632	0.288920
522.978	0.288123
523.324	0.287375
523.669	0.286643
524.015	0.285863
524.360	0.284995
524.706	0.284224
525.051	0.283391
525.397	0.282517
525.742	0.281746
526.087	0.281009
526.433	0.280311
526.778	0.279601
527.123	0.278825
527.468	0.278028
527.813	0.277357
528.158	0.276592
528.504	0.275798
528.849	0.274996
529.193	0.274240
529.538	0.273441
529.883	0.272629
530.228	0.271742
530.573	0.270984
530.918	0.270189
531.263	0.269491
531.607	0.268819
531.952	0.268113
532.296	0.267382
532.641	0.266742
532.986	0.265976
533.330	0.265187
533.675	0.264357
534.019	0.263584
534.363	0.262829
534.708	0.262060
535.052	0.261328
535.396	0.260624
535.741	0.259982
536.085	0.259254
536.429	0.258484
536.773	0.257764
537.117	0.257017
537.461	0.256219
537.805	0.255303
538.149	0.254406
538.493	0.253498
538.837	0.252619
539.181	0.251672
539.524	0.250765
539.868	0.249836
540.212	0.248948
540.556	0.248016
540.899	0.247174
541.243	0.246336
541.586	0.245513
541.930	0.244652
542.273	0.243715
542.617	0.242753
542.960	0.241712
543.304	0.240743
543.647	0.239749
543.990	0.238734
544.333	0.237697
544.677	0.236800
545.020	0.235896
545.363	0.235010
545.706	0.234060
546.049	0.233151
546.392	0.232230
546.735	0.231280
547.078	0.230278
547.421	0.229252
547.764	0.228265
548.106	0.227205
548.449	0.226114
548.792	0.225002
549.135	0.223918
549.477	0.222851
549.820	0.221895
550.162	0.220930
550.505	0.219907
550.847	0.218904
551.190	0.217819
551.532	0.216771
551.875	0.215598
552.217	0.214375
552.559	0.213143
552.901	0.211981
553.244	0.210813
553.586	0.209722
553.928	0.208678
554.270	0.207718
554.612	0.206748
554.954	0.205765
555.296	0.204701
555.638	0.203608
555.980	0.202435
556.322	0.201214
556.663	0.199976
557.005	0.198622
557.347	0.197340
557.689	0.196106
558.030	0.194895
558.372	0.193700
558.713	0.192494
559.055	0.191328
559.396	0.190137
559.738	0.188954
560.079	0.187715
560.421	0.186518
560.762	0.185314
561.103	0.184088
561.444	0.182871
561.786	0.181701
562.127	0.180529
562.468	0.179307
562.809	0.178053
563.150	0.176778
563.491	0.175464
563.832	0.174051
564.173	0.172610
564.514	0.171126
564.855	0.169625
565.195	0.168039
565.536	0.166453
565.877	0.164841
566.218	0.163274
566.558	0.161836
566.899	0.160397
567.239	0.159189
567.580	0.158062
567.920	0.157074
568.261	0.156203
568.601	0.155354
568.941	0.154597
569.282	0.153896
569.622	0.153192
569.962	0.152472
570.302	0.151784
570.643	0.151159
570.983	0.150638
571.323	0.150141
571.663	0.149658
572.003	0.149153
572.343	0.148646
572.683	0.148044
573.022	0.147382
573.362	0.146692
573.702	0.145993
574.042	0.145351
574.381	0.144690
574.721	0.144039
575.061	0.143442
575.400	0.142930
575.740	0.142378
576.079	0.141793
576.419	0.141104
576.758	0.140360
577.097	0.139586
577.437	0.138775
577.776	0.137913
578.115	0.137033
578.454	0.136205
578.794	0.135508
579.133	0.134932
579.472	0.134400
579.811	0.133932
580.150	0.133493
580.489	0.133030
580.828	0.132507
581.167	0.131985
581.505	0.131453
581.844	0.130938
582.183	0.130375
582.522	0.129772
582.860	0.129194
583.199	0.128666
583.538	0.128191
583.876	0.127769
584.215	0.127381
584.553	0.127015
584.891	0.126678
585.230	0.126325
585.568	0.125925
585.906	0.125440
586.245	0.124891
586.583	0.124340
586.921	0.123841
587.259	0.123411
587.597	0.122992
587.935	0.122558
588.273	0.122028
588.611	0.121405
588.949	0.120739
589.287	0.120065
589.625	0.119384
589.963	0.118825
590.300	0.118255
590.638	0.117765
590.976	0.117276
591.313	0.116757
591.651	0.116180
591.989	0.115605
592.326	0.115065
592.664	0.114610
593.001	0.114137
593.338	0.113730
593.676	0.113394
594.013	0.113015
594.350	0.112634
594.687	0.112330
595.025	0.112080
595.362	0.111790
595.699	0.111524
596.036	0.111205
596.373	0.110922
596.710	0.110588
597.047	0.110185
597.384	0.109818
597.720	0.109429
598.057	0.109042
598.394	0.108624
598.731	0.108239
599.067	0.107834
599.404	0.107409
599.741	0.106987
600.077	0.106612
600.414	0.106255
600.750	0.105938
601.087	0.105703
601.423	0.105439
601.759	0.105132
602.096	0.104787
602.432	0.104505
602.768	0.104182
603.104	0.103884
603.440	0.103538
603.776	0.103266
604.112	0.103001
604.448	0.102718
604.784	0.102486
605.120	0.102228
605.456	0.102021
605.792	0.101794
606.128	0.101586
606.463	0.101401
606.799	0.101169
607.135	0.100938
607.470	0.100720
607.806	0.100462
608.142	0.100202
608.477	0.099967
608.812	0.099713
609.148	0.099508
609.483	0.099267
609.819	0.099033
610.154	0.098791
610.489	0.098543
610.824	0.098292
611.159	0.098062
611.494	0.097841
611.830	0.097603
612.165	0.097473
612.500	0.097330
612.834	0.097231
613.169	0.097102
613.504	0.096919
613.839	0.096742
614.174	0.096566
614.509	0.096337
614.843	0.096123
615.178	0.095913
615.512	0.095754
615.847	0.095612
616.182	0.095506
616.516	0.095394
616.850	0.095323
617.185	0.095211
617.519	0.095101
617.853	0.094965
618.188	0.094742
618.522	0.094506
618.856	0.094259
619.190	0.093986
619.524	0.093751
619.858	0.093530
620.192	0.093350
620.526	0.093201
620.860	0.093106
621.194	0.092976
621.528	0.092854
621.862	0.092705
622.195	0.092591
622.529	0.092354
622.863	0.092178
623.196	0.091966
623.530	0.091815
623.864	0.091625
624.197	0.091486
624.530	0.091307
624.864	0.091150
625.197	0.091066
625.531	0.090964
625.864	0.090904
626.197	0.090770
626.530	0.090648
626.863	0.090467
627.196	0.090263
627.529	0.090071
627.862	0.089800
628.195	0.089570
628.528	0.089323
628.861	0.089099
629.194	0.088854
629.527	0.088705
629.860	0.088532
630.192	0.088274
630.525	0.087994
630.858	0.087745
631.190	0.087468
631.523	0.087265
631.855	0.086934
632.188	0.086632
632.520	0.086380
632.852	0.086111
633.185	0.085915
633.517	0.085712
633.849	0.085533
634.182	0.085419
634.514	0.085379
634.846	0.085380
635.178	0.085307
635.510	0.085273
635.842	0.085232
636.174	0.085148
636.506	0.085034
636.837	0.084934
637.169	0.084927
637.501	0.084858
637.833	0.084844
638.164	0.084774
638.496	0.084586
638.828	0.084430
639.159	0.084273
639.491	0.084077
639.822	0.083783
640.154	0.083457
640.485	0.083098
640.816	0.082808
641.147	0.082540
641.479	0.082145
641.810	0.081811
642.141	0.081503
642.472	0.081210
642.803	0.080975
643.134	0.080675
643.465	0.080453
643.796	0.080174
644.127	0.079946
644.458	0.079800
644.789	0.079655
645.119	0.079667
645.450	0.079818
645.781	0.080202
646.111	0.080520
646.442	0.080781
646.773	0.081008
647.103	0.081225
647.433	0.081424
647.764	0.081486
648.094	0.081507
648.425	0.081600
648.755	0.081716
649.085	0.081802
649.415	0.081934
649.745	0.082021
650.075	0.082172
650.405	0.082249
650.735	0.080980
651.065	0.072629
651.395	0.066237
651.725	0.055143
652.055	0.037412
652.385	0.027170
652.715	0.020476
653.044	0.015777
653.374	0.012315
653.704	0.009667
654.033	0.012129
654.363	0.016358
654.692	0.018681
655.022	0.020025
655.351	0.020812
655.680	0.021271
656.010	0.021512
656.339	0.021617
656.668	0.021639
656.997	0.021608
657.326	0.021546
657.655	0.021509
657.984	0.021357
658.313	0.019491
658.642	0.017899
658.971	0.021120
659.300	0.025205
659.629	0.030582
659.958	0.037963
660.286	0.048697
660.615	0.065777
660.944	0.077567
661.272	0.075983
661.601	0.075705
661.929	0.076011
662.258	0.076978
662.586	0.077841
662.915	0.078504
663.243	0.078711
663.571	0.078700
663.899	0.078606
664.228	0.078555
664.556	0.078490
664.884	0.078373
665.212	0.078273
665.540	0.078264
665.868	0.078268
666.196	0.078368
666.524	0.078376
666.852	0.078374
667.179	0.078419
667.507	0.078440
667.835	0.078570
668.162	0.078709
668.490	0.078872
668.818	0.079147
669.145	0.079250
669.473	0.079470
669.800	0.079719
670.127	0.079902
670.455	0.080026
670.782	0.080211
671.109	0.080296
671.436	0.080392
671.764	0.080554
672.091	0.080657
672.418	0.080756
672.745	0.080822
673.072	0.080899
673.399	0.080948
673.726	0.080989
674.053	0.081072
674.379	0.081197
674.706	0.081206
675.033	0.081148
675.359	0.081149
675.686	0.081107
676.013	0.081145
676.339	0.081090
676.666	0.080988
676.992	0.081002
677.318	0.081064
677.645	0.081062
677.971	0.081058
678.297	0.081116
678.624	0.081214
678.950	0.081185
679.276	0.081208
679.602	0.081192
679.928	0.081159
680.254	0.081061
680.580	0.080912
680.906	0.080842
681.232	0.080887
681.558	0.081056
681.883	0.081275
682.209	0.081529
682.535	0.081674
682.860	0.081788
683.186	0.081944
683.511	0.081937
683.837	0.081874
684.162	0.081829
684.488	0.081801
684.813	0.081811
685.138	0.081762
685.464	0.081612
685.789	0.081552
686.114	0.081483
686.439	0.081433
686.764	0.081462
687.089	0.081522
687.414	0.081630
687.739	0.081671
688.064	0.081652
688.389	0.081563
688.714	0.081471
689.039	0.081240
689.363	0.081217
689.688	0.081143
690.013	0.081004
690.337	0.081052
690.662	0.081085
690.986	0.081103
691.311	0.081127
691.635	0.081140
691.959	0.081157
692.284	0.081108
692.608	0.081070
692.932	0.081032
693.256	0.081102
693.580	0.081108
693.904	0.081170
694.228	0.081255
694.552	0.081395
694.876	0.081504
695.200	0.081582
695.524	0.081534
695.848	0.081583
696.172	0.081358
696.495	0.081193
696.819	0.081099
697.143	0.080861
697.466	0.080653
697.790	0.080414
698.113	0.080239
698.437	0.080042
698.760	0.079883
699.083	0.079874
699.407	0.079842
699.730	0.079791
700.053	0.079730
700.376	0.079620
700.699	0.079426
701.022	0.079129
701.345	0.078716
701.668	0.078148
701.991	0.077539
702.314	0.076987
702.637	0.076365
702.960	0.075946
703.283	0.075570
703.605	0.075234
703.928	0.075126
704.251	0.075078
704.573	0.075096
704.896	0.075033
705.218	0.075004
705.540	0.074839
705.863	0.074541
706.185	0.074184
706.507	0.073820
706.830	0.073394
707.152	0.072898
707.474	0.072431
707.796	0.072014
708.118	0.071667
708.440	0.071496
708.762	0.071358
709.084	0.071245
709.406	0.071154
709.728	0.071075
710.049	0.070926
710.371	0.070793
710.693	0.070548
711.014	0.070207
711.336	0.069943
711.658	0.069717
711.979	0.069551
712.301	0.069402
712.622	0.069353
712.943	0.069281
713.265	0.069224
713.586	0.069095
713.907	0.069091
714.228	0.069203
714.549	0.069242
714.870	0.069319
715.191	0.069338
715.512	0.069382
715.833	0.069431
716.154	0.069356
716.475	0.069237
716.796	0.069126
717.117	0.068845
717.437	0.068584
717.758	0.068355
718.078	0.067978
718.399	0.067651
718.719	0.067298
719.040	0.066972
719.360	0.066676
719.681	0.066431
720.001	0.066218
720.321	0.066167
720.642	0.066009
720.962	0.065713
721.282	0.065566
721.602	0.065403
721.922	0.065192
722.242	0.065015
722.562	0.064808
722.882	0.064782
723.202	0.064724
723.521	0.064641
723.841	0.064688
724.161	0.064641
724.481	0.064622
724.800	0.064622
725.120	0.064634
725.439	0.064540
725.759	0.064459
726.078	0.064420
726.398	0.064500
726.717	0.064507
727.036	0.064527
727.355	0.064727
727.675	0.064884
727.994	0.065036
728.313	0.065173
728.632	0.065275
728.951	0.065287
729.270	0.065282
729.589	0.065120
729.908	0.064927
730.226	0.064776
730.545	0.064581
730.864	0.064389
731.182	0.064258
731.501	0.064076
731.820	0.063949
732.138	0.063850
732.457	0.063726
732.775	0.063602
733.093	0.063430
733.412	0.063328
733.730	0.063204
734.048	0.062944
734.367	0.062703
734.685	0.062365
735.003	0.061981
735.321	0.061667
735.639	0.061404
735.957	0.061135
736.275	0.060941
736.593	0.060878
736.910	0.060730
737.228	0.060636
737.546	0.060586
737.863	0.060450
738.181	0.060278
738.499	0.060027
738.816	0.059819
739.134	0.059639
739.451	0.059427
739.768	0.059235
740.086	0.058941
740.403	0.058612
740.720	0.058339
741.038	0.058081
741.355	0.057810
741.672	0.057529
741.989	0.057218
742.306	0.056867
742.623	0.056461
742.940	0.056022
743.257	0.055366
743.573	0.054849
743.890	0.054247
744.207	0.053682
744.523	0.053212
744.840	0.052862
745.157	0.052500
745.473	0.052147
745.790	0.051878
746.106	0.051528
746.422	0.051177
746.739	0.050954
747.055	0.050709
747.371	0.050460
747.687	0.050351
748.004	0.050341
748.320	0.050392
748.636	0.050348
748.952	0.050259
749.268	0.050369
749.584	0.050376
749.899	0.050409
750.215	0.050396
750.531	0.050442
750.847	0.050506
751.162	0.050529
751.478	0.050550
751.793	0.050476
752.109	0.050370
752.424	0.050262
752.740	0.050194
753.055	0.050249
753.370	0.050305
753.686	0.050436
754.001	0.050715
754.316	0.050949
754.631	0.051094
754.946	0.051116
755.261	0.051197
755.576	0.051192
755.891	0.051093
756.206	0.051065
756.521	0.050975
756.836	0.050930
757.150	0.050888
757.465	0.050832
757.780	0.050770
758.094	0.050762
758.409	0.050815
758.723	0.050882
759.038	0.050847
759.352	0.050858
759.667	0.050756
759.981	0.050580
760.295	0.050322
760.609	0.049980
760.923	0.049685
761.238	0.049401
761.552	0.049196
761.866	0.048970
762.180	0.048902
762.493	0.048826
762.807	0.048737
763.121	0.048637
763.435	0.048458
763.749	0.048236
764.062	0.048006
764.376	0.047741
764.689	0.047462
765.003	0.047174
765.316	0.046927
765.630	0.046866
765.943	0.046710
766.257	0.046614
766.570	0.046498
766.883	0.046387
767.196	0.046207
767.509	0.045829
767.822	0.045531
768.135	0.045193
768.448	0.044863
768.761	0.044477
769.074	0.044167
769.387	0.043805
769.700	0.043501
770.013	0.043282
770.325	0.043094
770.638	0.042968
770.950	0.042774
771.263	0.042604
771.575	0.042382
771.888	0.042083
772.200	0.041706
772.513	0.041313
772.825	0.040906
773.137	0.040493
773.449	0.040139
773.761	0.039736
774.074	0.039484
774.386	0.039186
774.698	0.038910
775.010	0.038539
775.321	0.038235
775.633	0.037893
775.945	0.037795
776.257	0.037779
776.568	0.037666
776.880	0.037594
777.192	0.037449
777.503	0.037477
777.815	0.037452
778.126	0.037436
778.438	0.037563
778.749	0.037718
779.060	0.037922
779.372	0.038029
779.683	0.038155
779.994	0.038214
780.305	0.038318
780.616	0.038426
780.927	0.038511
781.238	0.038495
781.549	0.038638
781.860	0.038680
782.171	0.038772
782.481	0.038778
782.792	0.038737
783.103	0.038735
783.413	0.038721
783.724	0.038644
784.034	0.038590
784.345	0.038452
784.655	0.038436
784.966	0.038288
785.276	0.038141
785.586	0.037958
785.896	0.037843
786.207	0.037773
786.517	0.037747
786.827	0.037727
787.137	0.037663
787.447	0.037563
787.757	0.037661
788.066	0.037591
788.376	0.037631
788.686	0.037587
788.996	0.037550
789.305	0.037515
789.615	0.037516
789.925	0.037435
790.234	0.037506
790.544	0.037643
790.853	0.037734
791.162	0.037811
791.472	0.037990
791.781	0.038160
792.090	0.038348
792.399	0.038386
792.708	0.038358
793.017	0.038315
793.326	0.038213
793.635	0.038159
793.944	0.037993
794.253	0.037762
794.562	0.037586
794.871	0.037458
795.179	0.037278
795.488	0.037142
795.797	0.037066
796.105	0.036961
796.414	0.037004
796.722	0.036892
797.031	0.036669
797.339	0.036449
797.647	0.036170
797.956	0.035713
798.264	0.035190
798.572	0.034696
798.880	0.034390
799.188	0.034100
799.496	0.033863
799.804	0.033782
800.112	0.033626
800.420	0.033625
800.728	0.033630
801.035	0.033637
801.343	0.033372
801.651	0.033085
801.958	0.032986
802.266	0.032877
802.573	0.032933
802.881	0.032873
803.188	0.032952
803.496	0.033145
803.803	0.033392
804.110	0.033596
804.417	0.033627
804.724	0.033620
805.032	0.033673
805.339	0.033646
805.646	0.033699
805.953	0.033542
806.259	0.033464
806.566	0.033351
806.873	0.033426
807.180	0.033321
807.486	0.033321
807.793	0.033446
808.100	0.033649
808.406	0.033575
808.713	0.033633
809.019	0.033347
809.326	0.033152
809.632	0.032913
809.938	0.032413
810.244	0.032057
810.551	0.031611
810.857	0.031357
811.163	0.031178
811.469	0.030978
811.775	0.030888
812.081	0.030780
812.387	0.030908
812.692	0.030849
812.998	0.031050
813.304	0.030916
813.610	0.031167
813.915	0.031360
814.221	0.031333
814.526	0.031419
814.832	0.031702
815.137	0.031596
815.443	0.031672
815.748	0.031674
816.053	0.031567
816.358	0.031564
816.664	0.031412
816.969	0.031452
817.274	0.031632
817.579	0.031669
817.884	0.031679
818.189	0.031600
818.493	0.031497
818.798	0.031552
819.103	0.031508
819.408	0.031109
819.712	0.030999
820.017	0.030623
820.321	0.030223
820.626	0.030220
820.930	0.029850
821.235	0.029418
821.539	0.029406
821.843	0.029448
822.148	0.029443
822.452	0.029552
822.756	0.029918
823.060	0.030047
823.364	0.030429
823.668	0.030518
823.972	0.030770
824.276	0.030903
824.580	0.031161
824.883	0.031488
825.187	0.031553
825.491	0.031844
825.795	0.032136
826.098	0.032287
826.402	0.032453
826.705	0.032633
827.008	0.032414
827.312	0.032677
827.615	0.032623
827.918	0.032360
828.222	0.032023
828.525	0.031872
828.828	0.032039
829.131	0.031651
829.434	0.031624
829.737	0.030967
830.040	0.030650
830.343	0.030304
830.645	0.030104
830.948	0.029737
831.251	0.029324
831.553	0.029076
831.856	0.028689
832.159	0.028835
832.461	0.028734
832.764	0.028713
833.066	0.028448
833.368	0.028634
833.671	0.028436
833.973	0.028450
834.275	0.028522
834.577	0.028577
834.879	0.028624
835.181	0.028041
835.483	0.027868
835.785	0.027405
836.087	0.027162
836.389	0.027029
836.690	0.026230
836.992	0.025630
837.294	0.025009
837.595	0.024196
837.897	0.023422
838.198	0.022949
838.500	0.022185
838.801	0.021587
839.103	0.021058
839.404	0.020595
839.705	0.019881
840.006	0.019752
840.307	0.020012
840.608	0.019855
840.910	0.019932
841.210	0.020309
841.511	0.020642
841.812	0.020975
842.113	0.021414
842.414	0.021337
842.715	0.021042
843.015	0.020953
843.316	0.020775
843.616	0.020086
843.917	0.019946
844.217	0.019640
844.518	0.019614
844.818	0.019013
845.118	0.018800
845.419	0.018715
845.719	0.019028
846.019	0.018503
846.319	0.018507
846.619	0.017982
846.919	0.018507
847.219	0.018648
847.519	0.017919
847.819	0.018198
848.118	0.017494
848.418	0.017316
848.718	0.016918
849.017	0.016691
849.317	0.016993
849.616	0.017527
849.916	0.018463
850.215	0.019459
850.515	0.020221
850.814	0.020643
851.113	0.021105
851.412	0.021565
851.712	0.021844
852.011	0.022097
852.310	0.022757
852.609	0.022834
852.908	0.023183
853.206	0.023152
853.505	0.023624
853.804	0.023732
854.103	0.023742
854.401	0.023979
854.700	0.024166
854.999	0.024520
855.297	0.024638
855.595	0.024832
855.894	0.024702
856.192	0.024600
856.491	0.024466
856.789	0.024446
857.087	0.023894
857.385	0.023771
857.683	0.023447
857.981	0.023254
858.279	0.022874
858.577	0.022173
858.875	0.021916
859.173	0.021060
859.471	0.021193
859.768	0.020872
860.066	0.020607
860.363	0.019918
860.661	0.019271
860.959	0.018989
861.256	0.018948
861.553	0.019498
861.851	0.018994
862.148	0.018618
862.445	0.018729
862.742	0.018305
863.039	0.017243
863.337	0.017297
863.634	0.016914
863.931	0.016690
864.227	0.016915
864.524	0.016584
864.821	0.017021
865.118	0.016063
865.415	0.015977
865.711	0.015328
866.008	0.014313
866.304	0.014250
866.601	0.014290
866.897	0.014545
867.194	0.014074
867.490	0.013867
867.786	0.013216
868.082	0.014027
868.379	0.014001
868.675	0.013819
868.971	0.013951
869.267	0.014667
869.563	0.015392
869.859	0.015039
870.154	0.014687
870.450	0.014156
870.746	0.014003
871.042	0.014086
871.337	0.014226
871.633	0.014687
871.928	0.014409
872.224	0.013808
872.519	0.013206
872.815	0.013318
873.110	0.013415
873.405	0.013548
873.700	0.012985
873.995	0.012656
874.291	0.012316
874.586	0.012888
874.881	0.012887
875.175	0.012829
875.470	0.012646
875.765	0.012365
876.060	0.013052
876.355	0.013668
876.649	0.013798
876.944	0.014567
877.238	0.014084
877.533	0.014217
877.827	0.013963
878.122	0.014260
878.416	0.015344
878.710	0.016138
879.005	0.016227
879.299	0.016137
879.593	0.016197
879.887	0.016382
880.181	0.016268
880.475	0.016221
880.769	0.016094
881.063	0.016097
881.356	0.016080
881.650	0.016112
881.944	0.015965
882.238	0.012496
882.531	0.020565
882.825	0.009776
883.118	0.004936
883.412	0.012557
883.705	0.011131
883.998	0.013933
884.291	0.014005
884.585	0.011607
884.878	0.014108
>>>>>>>>>> END of Data <<<<<<<<<<
>>>>>>>>>> Raw Data Start <<<<<<<<
190.664	-397
191.040	5
191.415	5
191.791	8
192.166	9
192.542	9
192.917	6
193.293	7
193.668	4
194.044	8
194.419	-10
194.794	9
195.170	9
195.545	9
195.920	10
196.296	10
196.671	11
197.046	11
197.421	12
197.796	13
198.171	13
198.546	13
198.922	14
199.297	14
199.672	15
200.047	15
200.422	16
200.796	16
201.171	16
201.546	17
201.921	16
202.296	17
202.671	18
203.045	18
203.420	18
203.795	18
204.170	18
204.544	18
204.919	18
205.294	18
205.668	18
206.043	18
206.417	17
206.792	17
207.166	17
207.541	17
207.915	17
208.289	17
208.664	17
209.038	17
209.412	17
209.787	17
210.161	17
210.535	17
210.909	17
211.284	17
211.658	17
212.032	17
212.406	17
212.780	17
213.154	17
213.528	17
213.902	17
214.276	17
214.650	16
215.024	16
215.398	16
215.772	16
216.145	16
216.519	16
216.893	16
217.267	16
217.640	16
218.014	16
218.388	16
218.761	16
219.135	17
219.508	17
219.882	17
220.256	17
220.629	18
221.003	18
221.376	18
221.749	18
222.123	18
222.496	18
222.869	18
223.243	18
223.616	18
223.989	18
224.362	18
224.736	19
225.109	19
225.482	19
225.855	19
226.228	19
226.601	19
226.974	18
227.347	18
227.720	18
228.093	18
228.466	18
228.839	18
229.212	18
229.585	18
229.957	18
230.330	18
230.703	18
231.076	18
231.448	18
231.821	18
232.194	18
232.566	18
232.939	18
233.311	18
233.684	18
234.056	18
234.429	18
234.801	18
235.174	18
235.546	18
235.918	18
236.291	18
236.663	18
237.035	18
237.408	19
237.780	18
238.152	18
238.524	18
238.896	19
239.268	19
239.641	19
240.013	19
240.385	19
240.757	19
241.129	19
241.500	19
241.872	19
242.244	19
242.616	19
242.988	19
243.360	19
243.731	19
244.103	19
244.475	19
244.847	19
245.218	19
245.590	19
245.961	19
246.333	19
246.705	19
247.076	19
247.448	19
247.819	19
248.190	20
248.562	20
248.933	20
249.305	20
249.676	20
250.047	20
250.418	20
250.790	20
251.161	20
251.532	19
251.903	19
252.274	19
252.645	19
253.016	19
253.387	19
253.758	19
254.129	19
254.500	19
254.871	20
255.242	20
255.613	20
255.984	20
256.355	19
256.725	19
257.096	19
257.467	19
257.838	19
258.208	19
258.579	20
258.949	20
259.320	20
259.690	20
260.061	21
260.431	21
260.802	21
261.172	20
261.543	20
261.913	20
262.283	20
262.654	20
263.024	20
263.394	20
263.764	21
264.135	21
264.505	21
264.875	21
265.245	21
265.615	22
265.985	22
266.355	21
266.725	22
267.095	22
267.465	21
267.835	21
268.205	21
268.575	21
268.944	22
269.314	21
269.684	21
270.054	21
270.423	21
270.793	21
271.163	20
271.532	20
271.902	20
272.271	20
272.641	20
273.010	20
273.380	20
273.749	20
274.119	20
274.488	20
274.857	20
275.227	20
275.596	20
275.965	20
276.335	20
276.704	20
277.073	20
277.442	20
277.811	21
278.180	21
278.549	21
278.918	21
279.287	22
279.656	22
280.025	22
280.394	22
280.763	22
281.132	22
281.501	22
281.869	22
282.238	21
282.607	22
282.976	21
283.344	21
283.713	21
284.081	21
284.450	22
284.819	22
285.187	22
285.556	21
285.924	21
286.292	21
286.661	21
287.029	21
287.398	21
287.766	21
288.134	21
288.502	21
288.871	22
289.239	22
289.607	22
289.975	22
290.343	22
290.711	23
291.079	23
291.447	22
291.815	22
292.183	22
292.551	22
292.919	22
293.287	22
293.655	22
294.022	22
294.390	22
294.758	22
295.126	22
295.493	22
295.861	21
296.229	21
296.596	21
296.964	21
297.331	21
297.699	21
298.066	21
298.434	21
298.801	21
299.168	21
299.536	21
299.903	21
300.270	21
300.638	21
301.005	21
301.372	22
301.739	22
302.106	22
302.473	22
302.840	22
303.207	22
303.574	23
303.941	23
304.308	23
304.675	24
305.042	24
305.409	24
305.776	24
306.143	25
306.509	25
306.876	26
307.243	26
307.610	27
307.976	27
308.343	27
308.709	28
309.076	28
309.442	29
309.809	29
310.175	30
310.542	31
310.908	32
311.275	33
311.641	34
312.007	35
312.373	36
312.740	37
313.106	39
313.472	40
313.838	41
314.204	42
314.570	44
314.936	46
315.302	48
315.668	50
316.034	51
316.400	53
316.766	55
317.132	57
317.498	59
317.864	62
318.230	65
318.595	67
318.961	70
319.327	73
319.692	76
320.058	80
320.424	83
320.789	87
321.155	91
321.520	96
321.886	100
322.251	104
322.616	109
322.982	114
323.347	119
323.712	125
324.078	131
324.443	137
324.808	144
325.173	150
325.539	156
325.904	163
326.269	169
326.634	175
326.999	183
327.364	189
327.729	196
328.094	202
328.459	209
328.823	217
329.188	223
329.553	231
329.918	238
330.283	245
330.647	252
331.012	259
331.377	266
331.741	273
332.106	280
332.470	287
332.835	295
333.199	302
333.564	310
333.928	318
334.293	325
334.657	333
335.021	341
335.386	349
335.750	357
336.114	366
336.478	373
336.843	381
337.207	389
337.571	397
337.935	405
338.299	414
338.663	422
339.027	430
339.391	437
339.755	445
340.119	453
340.483	461
340.846	469
341.210	476
341.574	484
341.938	492
342.301	499
342.665	506
343.029	513
343.392	520
343.756	528
344.119	535
344.483	542
344.846	548
345.210	555
345.573	562
345.937	568
346.300	574
346.663	581
347.027	587
347.390	593
347.753	599
348.116	606
348.479	612
348.843	618
349.206	623
349.569	630
349.932	635
350.295	640
350.658	646
351.021	651
351.383	655
351.746	661
352.109	665
352.472	670
352.835	675
353.197	680
353.560	685
353.923	690
354.285	694
354.648	699
355.011	704
355.373	708
355.736	712
356.098	716
356.461	720
356.823	724
357.185	728
357.548	732
357.910	736
358.272	740
358.635	745
358.997	749
359.359	753
359.721	757
360.083	761
360.445	765
360.807	768
361.169	772
361.531	776
361.893	780
362.255	784
362.617	787
362.979	791
363.341	796
363.703	800
364.064	804
364.426	808
364.788	813
365.149	817
365.511	821
365.873	824
366.234	828
366.596	830
366.957	833
367.319	835
367.680	838
368.042	840
368.403	842
368.764	844
369.126	846
369.487	848
369.848	850
370.209	851
370.570	853
370.931	854
371.293	856
371.654	857
372.015	858
372.376	858
372.737	860
373.098	862
373.458	863
373.819	865
374.180	868
374.541	871
374.902	875
375.263	878
375.623	883
375.984	886
376.345	891
376.705	895
377.066	898
377.426	901
377.787	905
378.147	908
378.508	911
378.868	914
379.228	917
379.589	921
379.949	925
380.309	928
380.670	931
381.030	934
381.390	936
381.750	939
382.110	942
382.470	943
382.830	945
383.190	946
383.550	949
383.910	951
384.270	955
384.630	960
384.990	964
385.350	968
385.709	972
386.069	976
386.429	980
386.788	982
387.148	985
387.508	988
387.867	992
388.227	996
388.586	1002
388.946	1008
389.305	1014
389.665	1021
390.024	1028
390.383	1036
390.743	1042
391.102	1047
391.461	1052
391.820	1055
392.179	1058
392.539	1061
392.898	1064
393.257	1069
393.616	1074
393.975	1081
394.334	1089
394.693	1098
395.051	1109
395.410	1118
395.769	1125
396.128	1131
396.487	1136
396.845	1139
397.204	1142
397.563	1145
397.921	1146
398.280	1149
398.638	1151
398.997	1154
399.355	1157
399.714	1160
400.072	1164
400.431	1169
400.789	1172
401.147	1177
401.506	1181
401.864	1184
402.222	1187
402.580	1187
402.938	1187
403.297	1188
403.655	1188
404.013	1187
404.371	1189
404.729	1190
405.087	1192
405.444	1196
405.802	1199
406.160	1203
406.518	1207
406.876	1210
407.233	1213
407.591	1216
407.949	1218
408.306	1221
408.664	1224
409.022	1226
409.379	1229
409.737	1232
410.094	1237
410.451	1241
410.809	1246
411.166	1252
411.523	1258
411.881	1263
412.238	1269
412.595	1274
412.952	1277
413.310	1280
413.667	1283
414.024	1289
414.381	1292
414.738	1297
415.095	1302
415.452	1308
415.809	1313
416.165	1317
416.522	1323
416.879	1330
417.236	1339
417.593	1350
417.949	1363
418.306	1378
418.663	1393
419.019	1410
419.376	1427
419.732	1443
420.089	1457
420.445	1472
420.802	1486
421.158	1500
421.514	1510
421.871	1522
422.227	1532
422.583	1541
422.939	1549
423.295	1557
423.652	1566
424.008	1574
424.364	1580
424.720	1584
425.076	1589
425.432	1593
425.788	1597
426.143	1603
426.499	1611
426.855	1620
427.211	1628
427.567	1638
427.922	1645
428.278	1650
428.634	1654
428.989	1659
429.345	1664
429.700	1672
430.056	1681
430.411	1691
430.767	1703
431.122	1713
431.478	1722
431.833	1730
432.188	1737
432.543	1743
432.899	1748
433.254	1752
433.609	1753
433.964	1752
434.319	1752
434.674	1753
435.029	1755
435.384	1759
435.739	1766
436.094	1777
436.449	1788
436.804	1803
437.158	1818
437.513	1835
437.868	1855
438.223	1874
438.577	1896
438.932	1920
439.287	1943
439.641	1967
439.996	1992
440.350	2014
440.704	2038
441.059	2061
441.413	2085
441.768	2108
442.122	2130
442.476	2150
442.830	2171
443.185	2192
443.539	2210
443.893	2229
444.247	2244
444.601	2256
444.955	2264
445.309	2268
445.663	2272
446.017	2274
446.371	2275
446.724	2274
447.078	2273
447.432	2269
447.786	2266
448.139	2260
448.493	2254
448.847	2247
449.200	2240
449.554	2232
449.907	2224
450.261	2217
450.614	2209
450.968	2202
451.321	2195
451.674	2190
452.027	2182
452.381	2178
452.734	2175
453.087	2171
453.440	2170
453.793	2170
454.146	2173
454.499	2180
454.852	2191
455.205	2203
455.558	2215
455.911	2229
456.264	2242
456.617	2255
456.970	2267
457.322	2277
457.675	2287
458.028	2294
458.380	2300
458.733	2305
459.086	2310
459.438	2320
459.791	2329
460.143	2341
460.496	2359
460.848	2377
461.200	2398
461.553	2421
461.905	2442
462.257	2459
462.609	2474
462.961	2487
463.314	2498
463.666	2507
464.018	2513
464.370	2520
464.722	2530
465.074	2539
465.426	2546
465.777	2554
466.129	2558
466.481	2560
466.833	2559
467.184	2555
467.536	2547
467.888	2536
468.239	2525
468.591	2513
468.943	2503
469.294	2495
469.646	2491
469.997	2491
470.348	2496
470.700	2506
471.051	2522
471.402	2543
471.754	2569
472.105	2596
472.456	2625
472.807	2660
473.158	2698
473.509	2741
473.860	2788
474.211	2835
474.562	2885
474.913	2936
475.264	2991
475.615	3044
475.966	3098
476.316	3149
476.667	3201
477.018	3253
477.368	3308
477.719	3362
478.070	3413
478.420	3461
478.771	3508
479.121	3554
479.472	3600
479.822	3648
480.172	3701
480.523	3762
480.873	3851
481.223	4002
481.573	4230
481.924	4516
482.274	4840
482.624	5180
482.974	5520
483.324	5815
483.674	6037
484.024	6185
484.374	6281
484.724	6340
485.073	6377
485.423	6409
485.773	6437
486.123	6464
486.472	6490
486.822	6513
487.172	6532
487.521	6544
487.871	6544
488.220	6515
488.570	6420
488.919	6249
489.268	6017
489.618	5749
489.967	5460
490.316	5169
490.666	4916
491.015	4734
491.364	4621
491.713	4559
492.062	4532
492.411	4526
492.760	4530
493.109	4534
493.458	4540
493.807	4544
494.156	4545
494.505	4546
494.853	4549
495.202	4557
495.551	4570
495.900	4584
496.248	4600
496.597	4616
496.945	4630
497.294	4643
497.642	4659
497.991	4680
498.339	4704
498.688	4732
499.036	4758
499.384	4782
499.732	4801
500.081	4814
500.429	4825
500.777	4835
501.125	4843
501.473	4852
501.821	4862
502.169	4871
502.517	4876
502.865	4876
503.213	4873
503.561	4868
503.908	4860
504.256	4851
504.604	4840
504.952	4827
505.299	4812
505.647	4792
505.994	4768
506.342	4744
506.689	4719
507.037	4697
507.384	4679
507.732	4664
508.079	4650
508.426	4636
508.774	4624
509.121	4608
509.468	4592
509.815	4575
510.162	4560
510.509	4543
510.856	4525
511.203	4506
511.550	4489
511.897	4473
512.244	4455
512.591	4438
512.938	4422
513.284	4406
513.631	4388
513.978	4370
514.324	4350
514.671	4329
515.018	4308
515.364	4289
515.711	4272
516.057	4253
516.403	4235
516.750	4217
517.096	4196
517.443	4173
517.789	4150
518.135	4127
518.481	4109
518.827	4089
519.173	4068
519.519	4050
519.865	4032
520.211	4016
520.557	3999
520.903	3985
521.249	3972
521.595	3959
521.941	3945
522.287	3933
522.632	3919
522.978	3907
523.324	3897
523.669	3888
524.015	3883
524.360	3884
524.706	3890
525.051	3899
525.397	3913
525.742	3927
526.087	3941
526.433	3956
526.778	3968
527.123	3975
527.468	3982
527.813	3985
528.158	3989
528.504	3997
528.849	4011
529.193	4031
529.538	4055
529.883	4087
530.228	4124
530.573	4166
530.918	4210
531.263	4253
531.607	4292
531.952	4327
532.296	4354
532.641	4374
532.986	4388
533.330	4401
533.675	4416
534.019	4437
534.363	4466
534.708	4502
535.052	4544
535.396	4590
535.741	4633
536.085	4670
536.429	4703
536.773	4728
537.117	4745
537.461	4758
537.805	4769
538.149	4781
538.493	4795
538.837	4811
539.181	4833
539.524	4862
539.868	4899
540.212	4941
540.556	4986
540.899	5033
541.243	5074
541.586	5105
541.930	5126
542.273	5139
542.617	5145
542.960	5152
543.304	5166
543.647	5186
543.990	5219
544.333	5257
544.677	5295
545.020	5331
545.363	5357
545.706	5374
546.049	5382
546.392	5380
546.735	5368
547.078	5352
547.421	5338
547.764	5325
548.106	5315
548.449	5310
548.792	5316
549.135	5331
549.477	5354
549.820	5376
550.162	5392
550.505	5401
550.847	5401
551.190	5393
551.532	5381
551.875	5368
552.217	5360
552.559	5356
552.901	5361
553.244	5371
553.586	5385
553.928	5401
554.270	5413
554.612	5419
554.954	5419
555.296	5416
555.638	5412
555.980	5408
556.322	5408
556.663	5417
557.005	5439
557.347	5473
557.689	5510
558.030	5548
558.372	5580
558.713	5607
559.055	5631
559.396	5653
559.738	5678
560.079	5706
560.421	5742
560.762	5787
561.103	5840
561.444	5901
561.786	5964
562.127	6034
562.468	6111
562.809	6196
563.150	6293
563.491	6397
563.832	6514
564.173	6650
564.514	6808
564.855	7000
565.195	7242
565.536	7536
565.877	7881
566.218	8276
566.558	8722
566.899	9214
567.239	9743
567.580	10297
567.920	10866
568.261	11438
568.601	12023
568.941	12626
569.282	13246
569.622	13887
569.962	14552
570.302	15260
570.643	15988
570.983	16718
571.323	17419
571.663	18090
572.003	18721
572.343	19306
572.683	19847
573.022	20395
573.362	20967
573.702	21557
574.042	22142
574.381	22699
574.721	23225
575.061	23724
575.400	24170
575.740	24559
576.079	24897
576.419	25232
576.758	25618
577.097	26080
577.437	26588
577.776	27132
578.115	27704
578.454	28285
578.794	28813
579.133	29209
579.472	29465
579.811	29589
580.150	29588
580.489	29491
580.828	29349
581.167	29209
581.505	29094
581.844	28990
582.183	28889
582.522	28814
582.860	28757
583.199	28700
583.538	28605
583.876	28420
584.215	28117
584.553	27680
584.891	27123
585.230	26453
585.568	25722
585.906	24983
586.245	24317
586.583	23743
586.921	23266
587.259	22834
587.597	22403
587.935	21957
588.273	21502
588.611	21075
588.949	20692
589.287	20365
589.625	20100
589.963	19882
590.300	19703
590.638	19538
590.976	19359
591.313	19155
591.651	18962
591.989	18792
592.326	18651
592.664	18526
593.001	18422
593.338	18350
593.676	18303
594.013	18292
594.350	18340
594.687	18434
595.025	18541
595.362	18637
595.699	18696
596.036	18726
596.373	18714
596.710	18655
597.047	18565
597.384	18459
597.720	18343
598.057	18246
598.394	18172
598.731	18120
599.067	18099
599.404	18112
599.741	18167
600.077	18252
600.414	18351
600.750	18457
601.087	18531
601.423	18558
601.759	18546
602.096	18499
602.432	18428
602.768	18331
603.104	18201
603.440	18046
603.776	17881
604.112	17703
604.448	17526
604.784	17337
605.120	17139
605.456	16946
605.792	16746
606.128	16536
606.463	16321
606.799	16105
607.135	15907
607.470	15712
607.806	15519
608.142	15331
608.477	15151
608.812	14977
609.148	14802
609.483	14619
609.819	14433
610.154	14254
610.489	14089
610.824	13944
611.159	13820
611.494	13695
611.830	13586
612.165	13478
612.500	13359
612.834	13221
613.169	13066
613.504	12897
613.839	12711
614.174	12500
614.509	12290
614.843	12080
615.178	11881
615.512	11683
615.847	11490
616.182	11297
616.516	11103
616.850	10898
617.185	10686
617.519	10472
617.853	10243
618.188	10005
618.522	9788
618.856	9602
619.190	9440
619.524	9297
619.858	9182
620.192	9090
620.526	9008
620.860	8927
621.194	8849
621.528	8773
621.862	8697
622.195	8606
622.529	8511
622.863	8412
623.196	8314
623.530	8213
623.864	8114
624.197	8013
624.530	7915
624.864	7827
625.197	7735
625.531	7631
625.864	7506
626.197	7374
626.530	7232
626.863	7072
627.196	6899
627.529	6724
627.862	6552
628.195	6382
628.528	6214
628.861	6052
629.194	5908
629.527	5769
629.860	5632
630.192	5498
630.525	5373
630.858	5256
631.190	5145
631.523	5037
631.855	4936
632.188	4849
632.520	4767
632.852	4689
633.185	4610
633.517	4533
633.849	4464
634.182	4400
634.514	4339
634.846	4284
635.178	4236
635.510	4193
635.842	4153
636.174	4115
636.506	4077
636.837	4040
637.169	4002
637.501	3963
637.833	3920
638.164	3872
638.496	3820
638.828	3761
639.159	3695
639.491	3623
639.822	3550
640.154	3476
640.485	3403
640.816	3329
641.147	3257
641.479	3188
641.810	3121
642.141	3055
642.472	2991
642.803	2927
643.134	2867
643.465	2815
643.796	2773
644.127	2744
644.458	2727
644.789	2726
645.119	2740
645.450	2764
645.781	2790
646.111	2817
646.442	2840
646.773	2858
647.103	2872
647.433	2884
647.764	2896
648.094	2914
648.425	2937
648.755	2964
649.085	2995
649.415	3028
649.745	3064
650.075	3099
650.405	3139
650.735	3228
651.065	3873
651.395	5867
651.725	9144
652.055	12768
652.385	16387
652.715	20006
653.044	23626
653.374	27253
653.704	30885
654.033	34163
654.363	36195
654.692	37550
655.022	38432
655.351	39012
655.680	39372
656.010	39568
656.339	39656
656.668	39679
656.997	39668
657.326	39633
657.655	39534
657.984	38867
658.313	36839
658.642	33519
658.971	29839
659.300	26159
659.629	22480
659.958	18801
660.286	15122
660.615	11445
660.944	8131
661.272	6067
661.601	4682
661.929	3767
662.258	3149
662.586	2745
662.915	2497
663.243	2354
663.571	2273
663.899	2223
664.228	2192
664.556	2171
664.884	2156
665.212	2146
665.540	2138
665.868	2134
666.196	2131
666.524	2129
666.852	2130
667.179	2138
667.507	2153
667.835	2176
668.162	2207
668.490	2244
668.818	2289
669.145	2337
669.473	2384
669.800	2428
670.127	2467
670.455	2499
670.782	2526
671.109	2550
671.436	2570
671.764	2586
672.091	2599
672.418	2610
672.745	2619
673.072	2629
673.399	2640
673.726	2651
674.053	2660
674.379	2662
674.706	2660
675.033	2658
675.359	2654
675.686	2647
676.013	2643
676.339	2644
676.666	2652
676.992	2670
677.318	2696
677.645	2727
677.971	2755
678.297	2780
678.624	2805
678.950	2829
679.276	2851
679.602	2872
679.928	2894
680.254	2922
680.580	2958
680.906	3004
681.232	3060
681.558	3119
681.883	3178
682.209	3231
682.535	3282
682.860	3327
683.186	3366
683.511	3396
683.837	3415
684.162	3430
684.488	3442
684.813	3454
685.138	3465
685.464	3476
685.789	3484
686.114	3492
686.439	3504
686.764	3516
687.089	3524
687.414	3523
687.739	3512
688.064	3491
688.389	3464
688.714	3431
689.039	3397
689.363	3360
689.688	3319
690.013	3280
690.337	3244
690.662	3215
690.986	3189
691.311	3163
691.635	3136
691.959	3111
692.284	3094
692.608	3088
692.932	3093
693.256	3103
693.580	3115
693.904	3131
694.228	3151
694.552	3167
694.876	3175
695.200	3171
695.524	3157
695.848	3136
696.172	3110
696.495	3083
696.819	3055
697.143	3026
697.466	2996
697.790	2970
698.113	2952
698.437	2943
698.760	2941
699.083	2939
699.407	2930
699.730	2915
700.053	2891
700.376	2857
700.699	2811
701.022	2753
701.345	2689
701.668	2630
701.991	2581
702.314	2547
702.637	2531
702.960	2536
703.283	2562
703.605	2608
703.928	2670
704.251	2741
704.573	2812
704.896	2876
705.218	2927
705.540	2969
705.863	3002
706.185	3030
706.507	3053
706.830	3075
707.152	3098
707.474	3123
707.796	3151
708.118	3180
708.440	3208
708.762	3232
709.084	3252
709.406	3263
709.728	3264
710.049	3257
710.371	3243
710.693	3221
711.014	3197
711.336	3174
711.658	3153
711.979	3134
712.301	3116
712.622	3097
712.943	3075
713.265	3048
713.586	3021
713.907	2995
714.228	2971
714.549	2952
714.870	2939
715.191	2933
715.512	2931
715.833	2926
716.154	2918
716.475	2906
716.796	2887
717.117	2860
717.437	2827
717.758	2791
718.078	2754
718.399	2718
718.719	2686
719.040	2658
719.360	2637
719.681	2621
720.001	2612
720.321	2605
720.642	2602
720.962	2605
721.282	2611
721.602	2619
721.922	2629
722.242	2641
722.562	2658
722.882	2678
723.202	2697
723.521	2714
723.841	2731
724.161	2749
724.481	2768
724.800	2786
725.120	2810
725.439	2840
725.759	2873
726.078	2911
726.398	2957
726.717	3014
727.036	3078
727.355	3145
727.675	3211
727.994	3273
728.313	3334
728.632	3386
728.951	3429
729.270	3466
729.589	3502
729.908	3545
730.226	3593
730.545	3647
730.864	3705
731.182	3767
731.501	3831
731.820	3892
732.138	3944
732.457	3990
732.775	4033
733.093	4068
733.412	4087
733.730	4093
734.048	4084
734.367	4066
734.685	4042
735.003	4014
735.321	3989
735.639	3967
735.957	3952
736.275	3937
736.593	3915
736.910	3882
737.228	3836
737.546	3776
737.863	3707
738.181	3630
738.499	3550
738.816	3470
739.134	3392
739.451	3313
739.768	3233
740.086	3157
740.403	3087
740.720	3021
741.038	2959
741.355	2899
741.672	2840
741.989	2780
742.306	2717
742.623	2653
742.940	2590
743.257	2532
743.573	2481
743.890	2440
744.207	2410
744.523	2388
744.840	2374
745.157	2365
745.473	2364
745.790	2372
746.106	2390
746.422	2419
746.739	2453
747.055	2495
747.371	2543
747.687	2592
748.004	2639
748.320	2681
748.636	2717
748.952	2755
749.268	2791
749.584	2827
749.899	2859
750.215	2893
750.531	2930
750.847	2971
751.162	3013
751.478	3054
751.793	3096
752.109	3142
752.424	3190
752.740	3240
753.055	3296
753.370	3363
753.686	3441
754.001	3525
754.316	3613
754.631	3707
754.946	3807
755.261	3912
755.576	4015
755.891	4113
756.206	4210
756.521	4313
756.836	4416
757.150	4517
757.465	4606
757.780	4682
758.094	4746
758.409	4795
758.723	4827
759.038	4841
759.352	4841
759.667	4828
759.981	4805
760.295	4781
760.609	4764
760.923	4753
761.238	4746
761.552	4741
761.866	4735
762.180	4725
762.493	4699
762.807	4650
763.121	4576
763.435	4482
763.749	4379
764.062	4282
764.376	4201
764.689	4145
765.003	4115
765.316	4111
765.630	4124
765.943	4148
766.257	4176
766.570	4199
766.883	4205
767.196	4194
767.509	4168
767.822	4129
768.135	4078
768.448	4022
768.761	3964
769.074	3913
769.387	3875
769.700	3851
770.013	3836
770.325	3825
770.638	3808
770.950	3777
771.263	3726
771.575	3656
771.888	3566
772.200	3462
772.513	3348
772.825	3229
773.137	3107
773.449	2988
773.761	2872
774.074	2764
774.386	2667
774.698	2587
775.010	2521
775.321	2473
775.633	2442
775.945	2424
776.257	2413
776.568	2410
776.880	2417
777.192	2436
777.503	2461
777.815	2494
778.126	2537
778.438	2588
778.749	2643
779.060	2696
779.372	2746
779.683	2795
779.994	2839
780.305	2874
780.616	2897
780.927	2912
781.238	2917
781.549	2911
781.860	2892
782.171	2865
782.481	2836
782.792	2806
783.103	2776
783.413	2744
783.724	2710
784.034	2677
784.345	2647
784.655	2619
784.966	2591
785.276	2561
785.586	2533
785.896	2504
786.207	2474
786.517	2442
786.827	2410
787.137	2381
787.447	2352
787.757	2324
788.066	2298
788.376	2273
788.686	2248
788.996	2222
789.305	2197
789.615	2176
789.925	2165
790.234	2162
790.544	2166
790.853	2177
791.162	2188
791.472	2197
791.781	2201
792.090	2196
792.399	2183
792.708	2162
793.017	2138
793.326	2116
793.635	2094
793.944	2075
794.253	2058
794.562	2047
794.871	2039
795.179	2034
795.488	2027
795.797	2016
796.105	1998
796.414	1968
796.722	1927
797.031	1876
797.339	1814
797.647	1744
797.956	1671
798.264	1604
798.572	1548
798.880	1504
799.188	1472
799.496	1448
799.804	1430
800.112	1417
800.420	1405
800.728	1394
801.035	1379
801.343	1362
801.651	1349
801.958	1345
802.266	1350
802.573	1361
802.881	1376
803.188	1394
803.496	1414
803.803	1434
804.110	1452
804.417	1468
804.724	1483
805.032	1496
805.339	1507
805.646	1514
805.953	1519
806.259	1520
806.566	1517
806.873	1511
807.180	1504
807.486	1496
807.793	1486
808.100	1470
808.406	1446
808.713	1413
809.019	1374
809.326	1335
809.632	1298
809.938	1262
810.244	1230
810.551	1204
810.857	1181
811.163	1161
811.469	1141
811.775	1118
812.081	1096
812.387	1074
812.692	1058
812.998	1045
813.304	1035
813.610	1026
813.915	1019
814.221	1013
814.526	1008
814.832	1004
815.137	999
815.443	993
815.748	983
816.053	970
816.358	956
816.664	944
816.969	933
817.274	923
817.579	915
817.884	910
818.189	909
818.493	908
818.798	906
819.103	900
819.408	891
819.712	881
820.017	870
820.321	858
820.626	846
820.930	835
821.235	828
821.539	825
821.843	824
822.148	826
822.452	827
822.756	826
823.060	823
823.364	817
823.668	810
823.972	801
824.276	792
824.580	785
824.883	781
825.187	779
825.491	779
825.795	778
826.098	778
826.402	777
826.705	774
827.008	768
827.312	760
827.615	747
827.918	732
828.222	714
828.525	696
828.828	679
829.131	662
829.434	645
829.737	629
830.040	616
830.343	606
830.645	597
830.948	588
831.251	579
831.553	571
831.856	565
832.159	558
832.461	551
832.764	543
833.066	535
833.368	529
833.671	524
833.973	520
834.275	516
834.577	513
834.879	508
835.181	503
835.483	497
835.785	491
836.087	482
836.389	472
836.690	460
836.992	447
837.294	434
837.595	420
837.897	405
838.198	391
838.500	377
838.801	365
839.103	354
839.404	345
839.705	337
840.006	331
840.307	326
840.608	322
840.910	319
841.210	317
841.511	314
841.812	311
842.113	307
842.414	302
842.715	297
843.015	290
843.316	284
843.616	278
843.917	273
844.217	268
844.518	264
844.818	261
845.118	259
845.419	258
845.719	256
846.019	255
846.319	253
846.619	252
846.919	251
847.219	250
847.519	248
847.819	247
848.118	247
848.418	250
848.718	258
849.017	270
849.317	288
849.616	309
849.916	333
850.215	360
850.515	389
850.814	418
851.113	445
851.412	468
851.712	489
852.011	509
852.310	527
852.609	544
852.908	558
853.206	571
853.505	583
853.804	593
854.103	603
854.401	609
854.700	612
854.999	609
855.297	601
855.595	589
855.894	572
856.192	551
856.491	527
856.789	501
857.087	474
857.385	449
857.683	426
857.981	406
858.279	387
858.577	369
858.875	353
859.173	341
859.471	330
859.768	321
860.066	314
860.363	307
860.661	302
860.959	298
861.256	295
861.553	290
861.851	284
862.148	278
862.445	272
862.742	267
863.039	263
863.337	259
863.634	256
863.931	254
864.227	252
864.524	252
864.821	251
865.118	251
865.415	249
865.711	245
866.008	241
866.304	237
866.601	232
866.897	228
867.194	224
867.490	222
867.786	221
868.082	220
868.379	221
868.675	222
868.971	222
869.267	222
869.563	221
869.859	221
870.154	220
870.450	219
870.746	218
871.042	217
871.337	217
871.633	217
871.928	218
872.224	220
872.519	222
872.815	223
873.110	224
873.405	223
873.700	223
873.995	222
874.291	223
874.586	223
874.881	225
875.175	227
875.470	230
875.765	234
876.060	238
876.355	243
876.649	248
876.944	252
877.238	257
877.533	260
877.827	264
878.122	266
878.416	266
878.710	266
879.005	265
879.299	264
879.593	263
879.887	262
880.181	261
880.475	259
880.769	257
881.063	255
881.356	252
881.650	248
881.944	245
882.238	202
882.531	191
882.825	192
883.118	197
883.412	197
883.705	194
883.998	200
884.291	205
884.585	207
884.878	215
>>>>>>>>>> END of Data <<<<<<<<<<