Date	2021年06月15日火曜日 04時27分24秒
Spectrometers	USB2+H05879
ダーク	使用
リファレンス	使用
積分時間[msec]	10
平均回数	280
ｽﾑｰｼﾞﾝｸﾞ	10
Electrical Dark	USE
ピクセル数	2048
計測モード	吸光度
保存開始波長[nm]	190.664
保存終了波長[nm]	884.878
保存ﾋﾟｯﾁ波長[nm]	全波長

>>>>>>>>>> Data Start <<<<<<<<<<<<
190.664	0.000000
191.040	0.000000
191.415	0.000000
191.791	-2.286875
192.166	-0.533692
192.542	-0.915628
192.917	0.000000
193.293	-0.476297
193.668	-0.413146
194.044	-1.166284
194.419	0.000000
194.794	-1.364239
195.170	-1.282152
195.545	-1.201881
195.920	-1.076727
196.296	-0.959843
196.671	-0.795026
197.046	-0.647599
197.421	-0.602147
197.796	-0.592753
198.171	-0.551299
198.546	-0.514397
198.922	-0.463812
199.297	-0.445749
199.672	-0.420135
200.047	-0.390592
200.422	-0.359810
200.796	-0.347625
201.171	-0.329059
201.546	-0.331033
201.921	-0.326417
202.296	-0.316008
202.671	-0.281815
203.045	-0.254135
203.420	-0.239519
203.795	-0.221958
204.170	-0.214794
204.544	-0.211807
204.919	-0.209343
205.294	-0.199010
205.668	-0.190431
206.043	-0.174184
206.417	-0.173202
206.792	-0.162173
207.166	-0.150520
207.541	-0.151828
207.915	-0.154747
208.289	-0.134426
208.664	-0.132567
209.038	-0.137635
209.412	-0.126042
209.787	-0.108284
210.161	-0.100306
210.535	-0.117294
210.909	-0.113873
211.284	-0.111203
211.658	-0.121446
212.032	-0.119000
212.406	-0.129160
212.780	-0.128621
213.154	-0.132837
213.528	-0.128400
213.902	-0.131044
214.276	-0.118260
214.650	-0.133057
215.024	-0.138481
215.398	-0.135144
215.772	-0.121209
216.145	-0.122604
216.519	-0.117072
216.893	-0.108682
217.267	-0.104841
217.640	-0.107465
218.014	-0.093159
218.388	-0.075811
218.761	-0.085338
219.135	-0.079807
219.508	-0.079965
219.882	-0.087959
220.256	-0.076714
220.629	-0.067121
221.003	-0.064507
221.376	-0.065020
221.749	-0.065748
222.123	-0.072238
222.496	-0.066087
222.869	-0.055635
223.243	-0.048436
223.616	-0.056527
223.989	-0.064627
224.362	-0.063355
224.736	-0.061986
225.109	-0.064024
225.482	-0.067855
225.855	-0.076312
226.228	-0.078427
226.601	-0.073344
226.974	-0.068596
227.347	-0.054053
227.720	-0.050939
228.093	-0.053049
228.466	-0.062798
228.839	-0.063285
229.212	-0.074347
229.585	-0.089409
229.957	-0.087008
230.330	-0.081014
230.703	-0.078174
231.076	-0.085051
231.448	-0.084521
231.821	-0.082071
232.194	-0.079458
232.566	-0.085330
232.939	-0.092845
233.311	-0.091326
233.684	-0.085494
234.056	-0.087476
234.429	-0.083207
234.801	-0.080994
235.174	-0.089865
235.546	-0.094032
235.918	-0.095656
236.291	-0.091540
236.663	-0.085847
237.035	-0.079774
237.408	-0.062530
237.780	-0.048660
238.152	-0.053503
238.524	-0.059372
238.896	-0.051187
239.268	-0.048297
239.641	-0.050822
240.013	-0.050106
240.385	-0.044480
240.757	-0.042384
241.129	-0.044622
241.500	-0.045390
241.872	-0.044289
242.244	-0.047028
242.616	-0.050943
242.988	-0.049819
243.360	-0.040199
243.731	-0.033386
244.103	-0.035293
244.475	-0.038096
244.847	-0.029132
245.218	-0.029146
245.590	-0.032303
245.961	-0.031148
246.333	-0.027735
246.705	-0.036387
247.076	-0.034242
247.448	-0.030853
247.819	-0.034974
248.190	-0.028325
248.562	-0.025326
248.933	-0.026343
249.305	-0.026258
249.676	-0.021345
250.047	-0.024283
250.418	-0.025579
250.790	-0.019482
251.161	-0.019022
251.532	-0.020441
251.903	-0.020340
252.274	-0.015132
252.645	-0.012516
253.016	-0.017476
253.387	-0.027790
253.758	-0.026405
254.129	-0.029353
254.500	-0.019457
254.871	-0.022813
255.242	-0.018131
255.613	-0.019261
255.984	-0.023452
256.355	-0.028753
256.725	-0.024620
257.096	-0.023465
257.467	-0.027343
257.838	-0.023095
258.208	-0.021080
258.579	-0.025437
258.949	-0.026998
259.320	-0.027960
259.690	-0.027772
260.061	-0.025704
260.431	-0.022567
260.802	-0.020805
261.172	-0.011683
261.543	-0.009855
261.913	-0.002752
262.283	-0.005112
262.654	-0.006086
263.024	-0.011587
263.394	-0.004416
263.764	-0.004264
264.135	0.004030
264.505	0.007126
264.875	0.015504
265.245	0.017817
265.615	0.013130
265.985	0.013562
266.355	0.020470
266.725	0.022468
267.095	0.023612
267.465	0.029367
267.835	0.028811
268.205	0.014582
268.575	0.017236
268.944	0.017233
269.314	0.014523
269.684	0.012419
270.054	0.004868
270.423	0.010141
270.793	0.009596
271.163	0.008839
271.532	0.009001
271.902	0.007554
272.271	0.009423
272.641	0.004716
273.010	-0.004500
273.380	-0.005893
273.749	-0.009675
274.119	-0.007510
274.488	-0.004032
274.857	-0.001522
275.227	-0.000107
275.596	-0.003060
275.965	0.008390
276.335	0.008922
276.704	0.002786
277.073	0.008869
277.442	0.009914
277.811	0.019531
278.180	0.020799
278.549	0.021329
278.918	0.022156
279.287	0.026542
279.656	0.031297
280.025	0.031380
280.394	0.023419
280.763	0.029842
281.132	0.038678
281.501	0.043553
281.869	0.037178
282.238	0.031759
282.607	0.029449
282.976	0.031122
283.344	0.034931
283.713	0.026841
284.081	0.023845
284.450	0.032093
284.819	0.031943
285.187	0.033387
285.556	0.031003
285.924	0.028346
286.292	0.029986
286.661	0.024851
287.029	0.020665
287.398	0.024837
287.766	0.020160
288.134	0.024014
288.502	0.021450
288.871	0.021848
289.239	0.025079
289.607	0.029478
289.975	0.035550
290.343	0.037304
290.711	0.034577
291.079	0.033725
291.447	0.044871
291.815	0.049839
292.183	0.053843
292.551	0.051989
292.919	0.054970
293.287	0.059556
293.655	0.062294
294.022	0.063914
294.390	0.072316
294.758	0.078078
295.126	0.073043
295.493	0.076608
295.861	0.085071
296.229	0.094430
296.596	0.095122
296.964	0.090183
297.331	0.087409
297.699	0.083948
298.066	0.089040
298.434	0.092568
298.801	0.097821
299.168	0.092099
299.536	0.095463
299.903	0.085652
300.270	0.090903
300.638	0.097559
301.005	0.105719
301.372	0.108220
301.739	0.116252
302.106	0.115585
302.473	0.119540
302.840	0.132192
303.207	0.149565
303.574	0.156749
303.941	0.167005
304.308	0.171725
304.675	0.185936
305.042	0.206555
305.409	0.226837
305.776	0.239036
306.143	0.254433
306.509	0.269338
306.876	0.299728
307.243	0.318188
307.610	0.349573
307.976	0.367123
308.343	0.395352
308.709	0.415524
309.076	0.446503
309.442	0.473135
309.809	0.499151
310.175	0.530762
310.542	0.552007
310.908	0.569129
311.275	0.593002
311.641	0.615642
312.007	0.644020
312.373	0.670383
312.740	0.690747
313.106	0.710688
313.472	0.738273
313.838	0.762680
314.204	0.783713
314.570	0.795674
314.936	0.813895
315.302	0.828280
315.668	0.846279
316.034	0.858254
316.400	0.880802
316.766	0.891823
317.132	0.904616
317.498	0.919165
317.864	0.925194
318.230	0.935274
318.595	0.948072
318.961	0.957501
319.327	0.969094
319.692	0.977095
320.058	0.983151
320.424	0.991521
320.789	0.998417
321.155	1.003193
321.520	1.011387
321.886	1.019753
322.251	1.024840
322.616	1.030890
322.982	1.035501
323.347	1.040151
323.712	1.045847
324.078	1.045873
324.443	1.049679
324.808	1.051441
325.173	1.054629
325.539	1.058277
325.904	1.061242
326.269	1.062654
326.634	1.064547
326.999	1.065727
327.364	1.066675
327.729	1.068038
328.094	1.068946
328.459	1.070091
328.823	1.071638
329.188	1.071455
329.553	1.071625
329.918	1.072857
330.283	1.073863
330.647	1.074531
331.012	1.074943
331.377	1.074333
331.741	1.073713
332.106	1.074264
332.470	1.074685
332.835	1.074764
333.199	1.074218
333.564	1.073918
333.928	1.074099
334.293	1.074114
334.657	1.073492
335.021	1.073836
335.386	1.074020
335.750	1.073497
336.114	1.073241
336.478	1.072919
336.843	1.073021
337.207	1.072577
337.571	1.073271
337.935	1.072748
338.299	1.072426
338.663	1.071923
339.027	1.072058
339.391	1.072488
339.755	1.072224
340.119	1.071560
340.483	1.070724
340.846	1.071335
341.210	1.071775
341.574	1.071998
341.938	1.072091
342.301	1.072404
342.665	1.072710
343.029	1.072694
343.392	1.073488
343.756	1.073759
344.119	1.074087
344.483	1.074198
344.846	1.074592
345.210	1.074761
345.573	1.075135
345.937	1.075458
346.300	1.076336
346.663	1.076793
347.027	1.077374
347.390	1.077710
347.753	1.078278
348.116	1.079102
348.479	1.079834
348.843	1.080292
349.206	1.080838
349.569	1.080956
349.932	1.081647
350.295	1.082293
350.658	1.082737
351.021	1.083198
351.383	1.083872
351.746	1.084069
352.109	1.084787
352.472	1.085443
352.835	1.085700
353.197	1.086570
353.560	1.087371
353.923	1.087598
354.285	1.087799
354.648	1.088635
355.011	1.089026
355.373	1.090055
355.736	1.091040
356.098	1.091470
356.461	1.091742
356.823	1.092135
357.185	1.093572
357.548	1.094090
357.910	1.094691
358.272	1.095548
358.635	1.095864
358.997	1.096090
359.359	1.097183
359.721	1.097483
360.083	1.098242
360.445	1.098965
360.807	1.099484
361.169	1.100135
361.531	1.101025
361.893	1.101871
362.255	1.102340
362.617	1.103171
362.979	1.103882
363.341	1.103729
363.703	1.104262
364.064	1.105105
364.426	1.105954
364.788	1.106003
365.149	1.106594
365.511	1.107010
365.873	1.107468
366.234	1.108060
366.596	1.108885
366.957	1.109305
367.319	1.109985
367.680	1.110351
368.042	1.110500
368.403	1.110892
368.764	1.111532
369.126	1.111725
369.487	1.112285
369.848	1.112709
370.209	1.113421
370.570	1.113451
370.931	1.114555
371.293	1.114804
371.654	1.115200
372.015	1.115658
372.376	1.116188
372.737	1.116700
373.098	1.117131
373.458	1.117626
373.819	1.118483
374.180	1.119077
374.541	1.119390
374.902	1.119807
375.263	1.120230
375.623	1.120684
375.984	1.121348
376.345	1.121322
376.705	1.121863
377.066	1.122142
377.426	1.122439
377.787	1.122666
378.147	1.123198
378.508	1.122994
378.868	1.123496
379.228	1.123698
379.589	1.123626
379.949	1.123909
380.309	1.124065
380.670	1.124265
381.030	1.124506
381.390	1.124614
381.750	1.124551
382.110	1.124614
382.470	1.125021
382.830	1.124986
383.190	1.125667
383.550	1.125490
383.910	1.125805
384.270	1.126144
384.630	1.126304
384.990	1.126520
385.350	1.126624
385.709	1.126648
386.069	1.127205
386.429	1.127045
386.788	1.127291
387.148	1.127667
387.508	1.127954
387.867	1.127943
388.227	1.127824
388.586	1.127774
388.946	1.127648
389.305	1.127737
389.665	1.127902
390.024	1.127640
390.383	1.127526
390.743	1.127142
391.102	1.127011
391.461	1.126746
391.820	1.126242
392.179	1.125548
392.539	1.124974
392.898	1.124729
393.257	1.124338
393.616	1.123986
393.975	1.123544
394.334	1.123190
394.693	1.122692
395.051	1.122247
395.410	1.121703
395.769	1.121326
396.128	1.121095
396.487	1.120276
396.845	1.119668
397.204	1.118878
397.563	1.118006
397.921	1.117404
398.280	1.116280
398.638	1.114865
398.997	1.114073
399.355	1.113138
399.714	1.112708
400.072	1.111710
400.431	1.110524
400.789	1.109731
401.147	1.108278
401.506	1.107382
401.864	1.106071
402.222	1.104736
402.580	1.103190
402.938	1.101980
403.297	1.100534
403.655	1.098715
404.013	1.097543
404.371	1.096124
404.729	1.094885
405.087	1.093544
405.444	1.092221
405.802	1.090895
406.160	1.089922
406.518	1.088520
406.876	1.087278
407.233	1.085671
407.591	1.084487
407.949	1.082954
408.306	1.081360
408.664	1.079994
409.022	1.078334
409.379	1.076592
409.737	1.074844
410.094	1.073241
410.451	1.071479
410.809	1.069874
411.166	1.068409
411.523	1.066829
411.881	1.065387
412.238	1.063592
412.595	1.061917
412.952	1.060014
413.310	1.058374
413.667	1.056839
414.024	1.055322
414.381	1.053445
414.738	1.051654
415.095	1.049502
415.452	1.047806
415.809	1.045838
416.165	1.043968
416.522	1.041987
416.879	1.040189
417.236	1.038021
417.593	1.035844
417.949	1.033686
418.306	1.031669
418.663	1.029837
419.019	1.027806
419.376	1.025464
419.732	1.023174
420.089	1.021357
420.445	1.019612
420.802	1.017718
421.158	1.015707
421.514	1.013704
421.871	1.011553
422.227	1.009578
422.583	1.007804
422.939	1.005530
423.295	1.003217
423.652	1.000958
424.008	0.998795
424.364	0.996573
424.720	0.994665
425.076	0.992507
425.432	0.990318
425.788	0.988047
426.143	0.985332
426.499	0.982663
426.855	0.980298
427.211	0.978000
427.567	0.975266
427.922	0.972715
428.278	0.970066
428.634	0.967759
428.989	0.965149
429.345	0.962821
429.700	0.960320
430.056	0.957958
430.411	0.955893
430.767	0.953836
431.122	0.951532
431.478	0.949011
431.833	0.946500
432.188	0.943812
432.543	0.941183
432.899	0.938477
433.254	0.935646
433.609	0.932991
433.964	0.930290
434.319	0.927229
434.674	0.924351
435.029	0.921712
435.384	0.918867
435.739	0.916172
436.094	0.913548
436.449	0.911068
436.804	0.908377
437.158	0.905559
437.513	0.902708
437.868	0.899633
438.223	0.896657
438.577	0.893781
438.932	0.890941
439.287	0.888178
439.641	0.885291
439.996	0.882489
440.350	0.879792
440.704	0.877150
441.059	0.874536
441.413	0.871731
441.768	0.869134
442.122	0.866565
442.476	0.863606
442.830	0.861008
443.185	0.858462
443.539	0.855636
443.893	0.852935
444.247	0.850210
444.601	0.847667
444.955	0.844841
445.309	0.842098
445.663	0.839293
446.017	0.836491
446.371	0.833658
446.724	0.830688
447.078	0.828026
447.432	0.825263
447.786	0.822377
448.139	0.819364
448.493	0.816440
448.847	0.813524
449.200	0.810649
449.554	0.807770
449.907	0.805155
450.261	0.802267
450.614	0.799285
450.968	0.796460
451.321	0.793498
451.674	0.790650
452.027	0.787669
452.381	0.784846
452.734	0.782025
453.087	0.779230
453.440	0.776207
453.793	0.773383
454.146	0.770597
454.499	0.767823
454.852	0.764851
455.205	0.762160
455.558	0.759491
455.911	0.756735
456.264	0.754068
456.617	0.751426
456.970	0.748887
457.322	0.746364
457.675	0.743918
458.028	0.741664
458.380	0.739521
458.733	0.737268
459.086	0.735056
459.438	0.732831
459.791	0.730453
460.143	0.727935
460.496	0.725609
460.848	0.723279
461.200	0.721008
461.553	0.718661
461.905	0.716313
462.257	0.714017
462.609	0.711715
462.961	0.709574
463.314	0.707530
463.666	0.705479
464.018	0.703385
464.370	0.701392
464.722	0.699402
465.074	0.697425
465.426	0.695413
465.777	0.693358
466.129	0.691411
466.481	0.689519
466.833	0.687709
467.184	0.685941
467.536	0.684140
467.888	0.682185
468.239	0.680285
468.591	0.678078
468.943	0.675759
469.294	0.673391
469.646	0.671094
469.997	0.668873
470.348	0.666628
470.700	0.664322
471.051	0.662202
471.402	0.660139
471.754	0.657959
472.105	0.655922
472.456	0.653860
472.807	0.651990
473.158	0.650104
473.509	0.648484
473.860	0.646788
474.211	0.645056
474.562	0.643396
474.913	0.641761
475.264	0.640116
475.615	0.638515
475.966	0.637003
476.316	0.635416
476.667	0.633886
477.018	0.632364
477.368	0.630626
477.719	0.628983
478.070	0.627477
478.420	0.625906
478.771	0.624254
479.121	0.622742
479.472	0.621176
479.822	0.619724
480.172	0.618179
480.523	0.616546
480.873	0.614592
481.223	0.612380
481.573	0.610105
481.924	0.607836
482.274	0.605589
482.624	0.603642
482.974	0.601979
483.324	0.600636
483.674	0.599628
484.024	0.598603
484.374	0.597635
484.724	0.596710
485.073	0.595733
485.423	0.594740
485.773	0.593729
486.123	0.592773
486.472	0.591736
486.822	0.590710
487.172	0.589678
487.521	0.588643
487.871	0.587681
488.220	0.586720
488.570	0.585728
488.919	0.584556
489.268	0.583190
489.618	0.581742
489.967	0.580031
490.316	0.577954
490.666	0.575618
491.015	0.573268
491.364	0.571094
491.713	0.569083
492.062	0.567241
492.411	0.565491
492.760	0.563784
493.109	0.562155
493.458	0.560596
493.807	0.559033
494.156	0.557447
494.505	0.555828
494.853	0.554202
495.202	0.552515
495.551	0.550862
495.900	0.549236
496.248	0.547525
496.597	0.545885
496.945	0.544303
497.294	0.542666
497.642	0.541073
497.991	0.539531
498.339	0.537898
498.688	0.536361
499.036	0.534932
499.384	0.533448
499.732	0.531980
500.081	0.530527
500.429	0.528973
500.777	0.527411
501.125	0.525996
501.473	0.524555
501.821	0.523124
502.169	0.521738
502.517	0.520386
502.865	0.519035
503.213	0.517647
503.561	0.516375
503.908	0.515079
504.256	0.513708
504.604	0.512369
504.952	0.511043
505.299	0.509690
505.647	0.508387
505.994	0.507036
506.342	0.505643
506.689	0.504276
507.037	0.502899
507.384	0.501483
507.732	0.500157
508.079	0.498876
508.426	0.497468
508.774	0.496197
509.121	0.494913
509.468	0.493691
509.815	0.492454
510.162	0.491161
510.509	0.489898
510.856	0.488699
511.203	0.487472
511.550	0.486309
511.897	0.485129
512.244	0.483971
512.591	0.482699
512.938	0.481502
513.284	0.480328
513.631	0.479119
513.978	0.477924
514.324	0.476776
514.671	0.475681
515.018	0.474503
515.364	0.473309
515.711	0.472194
516.057	0.471017
516.403	0.469868
516.750	0.468748
517.096	0.467656
517.443	0.466612
517.789	0.465513
518.135	0.464390
518.481	0.463254
518.827	0.462125
519.173	0.460967
519.519	0.459792
519.865	0.458745
520.211	0.457693
520.557	0.456604
520.903	0.455468
521.249	0.454357
521.595	0.453166
521.941	0.451938
522.287	0.450757
522.632	0.449478
522.978	0.448249
523.324	0.446947
523.669	0.445732
524.015	0.444390
524.360	0.443016
524.706	0.441715
525.051	0.440452
525.397	0.439095
525.742	0.437927
526.087	0.436785
526.433	0.435635
526.778	0.434528
527.123	0.433361
527.468	0.432136
527.813	0.430979
528.158	0.429817
528.504	0.428585
528.849	0.427370
529.193	0.426111
529.538	0.424843
529.883	0.423605
530.228	0.422251
530.573	0.421045
530.918	0.419737
531.263	0.418526
531.607	0.417365
531.952	0.416175
532.296	0.415034
532.641	0.413897
532.986	0.412652
533.330	0.411315
533.675	0.410021
534.019	0.408650
534.363	0.407309
534.708	0.405969
535.052	0.404668
535.396	0.403401
535.741	0.402185
536.085	0.400851
536.429	0.399577
536.773	0.398286
537.117	0.396957
537.461	0.395542
537.805	0.394032
538.149	0.392560
538.493	0.391006
538.837	0.389435
539.181	0.387820
539.524	0.386240
539.868	0.384669
540.212	0.383043
540.556	0.381486
540.899	0.379940
541.243	0.378406
541.586	0.376861
541.930	0.375352
542.273	0.373765
542.617	0.372105
542.960	0.370392
543.304	0.368673
543.647	0.366932
543.990	0.365144
544.333	0.363366
544.677	0.361697
545.020	0.360020
545.363	0.358384
545.706	0.356700
546.049	0.355055
546.392	0.353401
546.735	0.351686
547.078	0.349928
547.421	0.348156
547.764	0.346327
548.106	0.344442
548.449	0.342573
548.792	0.340698
549.135	0.338761
549.477	0.336847
549.820	0.335006
550.162	0.333204
550.505	0.331454
550.847	0.329601
551.190	0.327698
551.532	0.325685
551.875	0.323626
552.217	0.321460
552.559	0.319345
552.901	0.317333
553.244	0.315302
553.586	0.313380
553.928	0.311512
554.270	0.309726
554.612	0.307952
554.954	0.306179
555.296	0.304336
555.638	0.302442
555.980	0.300406
556.322	0.298305
556.663	0.296139
557.005	0.293850
557.347	0.291643
557.689	0.289452
558.030	0.287347
558.372	0.285274
558.713	0.283266
559.055	0.281219
559.396	0.279225
559.738	0.277030
560.079	0.274830
560.421	0.272756
560.762	0.270717
561.103	0.268649
561.444	0.266635
561.786	0.264617
562.127	0.262619
562.468	0.260612
562.809	0.258512
563.150	0.256368
563.491	0.254192
563.832	0.251876
564.173	0.249555
564.514	0.247155
564.855	0.244693
565.195	0.242112
565.536	0.239510
565.877	0.236977
566.218	0.234509
566.558	0.232118
566.899	0.229908
567.239	0.227836
567.580	0.225910
567.920	0.224165
568.261	0.222631
568.601	0.221143
568.941	0.219726
569.282	0.218425
569.622	0.217117
569.962	0.215798
570.302	0.214532
570.643	0.213339
570.983	0.212250
571.323	0.211211
571.663	0.210212
572.003	0.209199
572.343	0.208195
572.683	0.207105
573.022	0.205923
573.362	0.204684
573.702	0.203444
574.042	0.202234
574.381	0.201070
574.721	0.199940
575.061	0.198857
575.400	0.197830
575.740	0.196817
576.079	0.195826
576.419	0.194711
576.758	0.193537
577.097	0.192321
577.437	0.191026
577.776	0.189658
578.115	0.188312
578.454	0.187046
578.794	0.185954
579.133	0.185010
579.472	0.184166
579.811	0.183419
580.150	0.182680
580.489	0.181920
580.828	0.181090
581.167	0.180209
581.505	0.179315
581.844	0.178419
582.183	0.177484
582.522	0.176567
582.860	0.175679
583.199	0.174841
583.538	0.174072
583.876	0.173349
584.215	0.172653
584.553	0.172001
584.891	0.171402
585.230	0.170774
585.568	0.170097
585.906	0.169302
586.245	0.168457
586.583	0.167614
586.921	0.166814
587.259	0.166120
587.597	0.165470
587.935	0.164786
588.273	0.164048
588.611	0.163173
588.949	0.162230
589.287	0.161282
589.625	0.160318
589.963	0.159422
590.300	0.158554
590.638	0.157789
590.976	0.157049
591.313	0.156299
591.651	0.155483
591.989	0.154674
592.326	0.153914
592.664	0.153246
593.001	0.152593
593.338	0.152009
593.676	0.151487
594.013	0.150965
594.350	0.150454
594.687	0.149974
595.025	0.149577
595.362	0.149128
595.699	0.148697
596.036	0.148270
596.373	0.147846
596.710	0.147388
597.047	0.146910
597.384	0.146407
597.720	0.145880
598.057	0.145364
598.394	0.144810
598.731	0.144301
599.067	0.143757
599.404	0.143161
599.741	0.142588
600.077	0.142072
600.414	0.141592
600.750	0.141176
601.087	0.140795
601.423	0.140402
601.759	0.139986
602.096	0.139548
602.432	0.139190
602.768	0.138792
603.104	0.138373
603.440	0.137928
603.776	0.137534
604.112	0.137134
604.448	0.136796
604.784	0.136446
605.120	0.136100
605.456	0.135808
605.792	0.135504
606.128	0.135203
606.463	0.134960
606.799	0.134645
607.135	0.134307
607.470	0.134017
607.806	0.133652
608.142	0.133331
608.477	0.132999
608.812	0.132680
609.148	0.132375
609.483	0.132042
609.819	0.131734
610.154	0.131421
610.489	0.131126
610.824	0.130779
611.159	0.130469
611.494	0.130110
611.830	0.129845
612.165	0.129624
612.500	0.129404
612.834	0.129204
613.169	0.129006
613.504	0.128743
613.839	0.128503
614.174	0.128244
614.509	0.127951
614.843	0.127681
615.178	0.127418
615.512	0.127202
615.847	0.127003
616.182	0.126834
616.516	0.126658
616.850	0.126477
617.185	0.126274
617.519	0.126073
617.853	0.125906
618.188	0.125648
618.522	0.125370
618.856	0.125031
619.190	0.124669
619.524	0.124301
619.858	0.123963
620.192	0.123699
620.526	0.123460
620.860	0.123244
621.194	0.123040
621.528	0.122787
621.862	0.122579
622.195	0.122363
622.529	0.122090
622.863	0.121823
623.196	0.121536
623.530	0.121299
623.864	0.121091
624.197	0.120892
624.530	0.120620
624.864	0.120401
625.197	0.120241
625.531	0.120074
625.864	0.119882
626.197	0.119667
626.530	0.119523
626.863	0.119296
627.196	0.118983
627.529	0.118742
627.862	0.118460
628.195	0.118184
628.528	0.117923
628.861	0.117594
629.194	0.117350
629.527	0.117060
629.860	0.116820
630.192	0.116448
630.525	0.116118
630.858	0.115784
631.190	0.115474
631.523	0.115204
631.855	0.114768
632.188	0.114362
632.520	0.114010
632.852	0.113655
633.185	0.113366
633.517	0.113027
633.849	0.112788
634.182	0.112627
634.514	0.112464
634.846	0.112331
635.178	0.112135
635.510	0.111987
635.842	0.111865
636.174	0.111662
636.506	0.111534
636.837	0.111329
637.169	0.111304
637.501	0.111098
637.833	0.110985
638.164	0.110821
638.496	0.110618
638.828	0.110375
639.159	0.110147
639.491	0.109913
639.822	0.109654
640.154	0.109297
640.485	0.108960
640.816	0.108567
641.147	0.108180
641.479	0.107716
641.810	0.107311
642.141	0.107007
642.472	0.106636
642.803	0.106245
643.134	0.105800
643.465	0.105427
643.796	0.105149
644.127	0.104799
644.458	0.104599
644.789	0.104354
645.119	0.104297
645.450	0.104299
645.781	0.104557
646.111	0.104757
646.442	0.104889
646.773	0.105018
647.103	0.105121
647.433	0.105158
647.764	0.105184
648.094	0.105100
648.425	0.105166
648.755	0.105153
649.085	0.105134
649.415	0.105183
649.745	0.105338
650.075	0.105418
650.405	0.105452
650.735	0.104015
651.065	0.095532
651.395	0.088038
651.725	0.076011
652.055	0.051967
652.385	0.038244
652.715	0.029351
653.044	0.023131
653.374	0.018560
653.704	0.015064
654.033	0.019932
654.363	0.025128
654.692	0.028112
655.022	0.029870
655.351	0.030923
655.680	0.031543
656.010	0.031875
656.339	0.032018
656.668	0.032046
656.997	0.032012
657.326	0.031939
657.655	0.031870
657.984	0.031512
658.313	0.029120
658.642	0.026578
658.971	0.030943
659.300	0.036513
659.629	0.043857
659.958	0.053976
660.286	0.068829
660.615	0.092756
660.944	0.102847
661.272	0.101195
661.601	0.100224
661.929	0.099794
662.258	0.099839
662.586	0.099977
662.915	0.099993
663.243	0.099774
663.571	0.099455
663.899	0.099186
664.228	0.098890
664.556	0.098729
664.884	0.098528
665.212	0.098279
665.540	0.098199
665.868	0.098138
666.196	0.098135
666.524	0.098046
666.852	0.098067
667.179	0.097990
667.507	0.097951
667.835	0.097960
668.162	0.097915
668.490	0.097901
668.818	0.097952
669.145	0.097970
669.473	0.098109
669.800	0.098310
670.127	0.098504
670.455	0.098610
670.782	0.098760
671.109	0.098854
671.436	0.098902
671.764	0.099036
672.091	0.099133
672.418	0.099174
672.745	0.099233
673.072	0.099230
673.399	0.099216
673.726	0.099115
674.053	0.099137
674.379	0.099114
674.706	0.099063
675.033	0.098979
675.359	0.098960
675.686	0.098832
676.013	0.098826
676.339	0.098648
676.666	0.098496
676.992	0.098423
677.318	0.098369
677.645	0.098226
677.971	0.098204
678.297	0.098212
678.624	0.098204
678.950	0.098111
679.276	0.098055
679.602	0.097924
679.928	0.097798
680.254	0.097669
680.580	0.097564
680.906	0.097468
681.232	0.097477
681.558	0.097579
681.883	0.097695
682.209	0.097863
682.535	0.097992
682.860	0.098122
683.186	0.098259
683.511	0.098238
683.837	0.098163
684.162	0.098182
684.488	0.098209
684.813	0.098234
685.138	0.098206
685.464	0.098095
685.789	0.098050
686.114	0.097956
686.439	0.097937
686.764	0.097904
687.089	0.097937
687.414	0.097969
687.739	0.098058
688.064	0.098040
688.389	0.097982
688.714	0.097929
689.039	0.097785
689.363	0.097709
689.688	0.097580
690.013	0.097443
690.337	0.097423
690.662	0.097412
690.986	0.097366
691.311	0.097361
691.635	0.097302
691.959	0.097208
692.284	0.097090
692.608	0.096943
692.932	0.096882
693.256	0.096892
693.580	0.096933
693.904	0.097031
694.228	0.097114
694.552	0.097167
694.876	0.097250
695.200	0.097317
695.524	0.097306
695.848	0.097210
696.172	0.097044
696.495	0.096821
696.819	0.096731
697.143	0.096492
697.466	0.096287
697.790	0.095968
698.113	0.095755
698.437	0.095513
698.760	0.095347
699.083	0.095367
699.407	0.095341
699.730	0.095392
700.053	0.095413
700.376	0.095338
700.699	0.095114
701.022	0.094910
701.345	0.094503
701.668	0.094045
701.991	0.093501
702.314	0.092876
702.637	0.092313
702.960	0.091843
703.283	0.091480
703.605	0.091038
703.928	0.090943
704.251	0.090895
704.573	0.090937
704.896	0.090914
705.218	0.090918
705.540	0.090861
705.863	0.090553
706.185	0.090340
706.507	0.089909
706.830	0.089468
707.152	0.088986
707.474	0.088571
707.796	0.088120
708.118	0.087795
708.440	0.087551
708.762	0.087337
709.084	0.087284
709.406	0.087183
709.728	0.087115
710.049	0.086994
710.371	0.086927
710.693	0.086702
711.014	0.086379
711.336	0.086204
711.658	0.085996
711.979	0.085787
712.301	0.085611
712.622	0.085569
712.943	0.085468
713.265	0.085453
713.586	0.085383
713.907	0.085433
714.228	0.085480
714.549	0.085570
714.870	0.085684
715.191	0.085707
715.512	0.085786
715.833	0.085833
716.154	0.085819
716.475	0.085797
716.796	0.085727
717.117	0.085495
717.437	0.085217
717.758	0.085007
718.078	0.084610
718.399	0.084310
718.719	0.083987
719.040	0.083687
719.360	0.083453
719.681	0.083287
720.001	0.083116
720.321	0.083060
720.642	0.082820
720.962	0.082601
721.282	0.082467
721.602	0.082240
721.922	0.082126
722.242	0.081934
722.562	0.081692
722.882	0.081619
723.202	0.081580
723.521	0.081523
723.841	0.081532
724.161	0.081534
724.481	0.081541
724.800	0.081548
725.120	0.081508
725.439	0.081460
725.759	0.081380
726.078	0.081325
726.398	0.081229
726.717	0.081229
727.036	0.081217
727.355	0.081311
727.675	0.081497
727.994	0.081665
728.313	0.081883
728.632	0.082078
728.951	0.082156
729.270	0.082179
729.589	0.082095
729.908	0.081850
730.226	0.081683
730.545	0.081537
730.864	0.081402
731.182	0.081224
731.501	0.081124
731.820	0.081062
732.138	0.081023
732.457	0.080922
732.775	0.080822
733.093	0.080765
733.412	0.080697
733.730	0.080559
734.048	0.080422
734.367	0.080161
734.685	0.079864
735.003	0.079515
735.321	0.079182
735.639	0.078882
735.957	0.078709
736.275	0.078538
736.593	0.078494
736.910	0.078388
737.228	0.078303
737.546	0.078202
737.863	0.078154
738.181	0.077933
738.499	0.077706
738.816	0.077489
739.134	0.077307
739.451	0.077131
739.768	0.076937
740.086	0.076694
740.403	0.076429
740.720	0.076161
741.038	0.075871
741.355	0.075556
741.672	0.075217
741.989	0.074879
742.306	0.074529
742.623	0.074079
742.940	0.073579
743.257	0.073006
743.573	0.072573
743.890	0.072022
744.207	0.071496
744.523	0.071006
744.840	0.070673
745.157	0.070301
745.473	0.069943
745.790	0.069610
746.106	0.069293
746.422	0.068981
746.739	0.068680
747.055	0.068450
747.371	0.068294
747.687	0.068247
748.004	0.068267
748.320	0.068316
748.636	0.068268
748.952	0.068243
749.268	0.068306
749.584	0.068388
749.899	0.068438
750.215	0.068383
750.531	0.068385
750.847	0.068468
751.162	0.068519
751.478	0.068466
751.793	0.068351
752.109	0.068225
752.424	0.068138
752.740	0.068041
753.055	0.068041
753.370	0.068007
753.686	0.068170
754.001	0.068354
754.316	0.068555
754.631	0.068646
754.946	0.068732
755.261	0.068880
755.576	0.068968
755.891	0.068918
756.206	0.068892
756.521	0.068747
756.836	0.068692
757.150	0.068686
757.465	0.068633
757.780	0.068569
758.094	0.068623
758.409	0.068663
758.723	0.068745
759.038	0.068781
759.352	0.068792
759.667	0.068697
759.981	0.068586
760.295	0.068306
760.609	0.067972
760.923	0.067667
761.238	0.067385
761.552	0.067085
761.866	0.066836
762.180	0.066695
762.493	0.066600
762.807	0.066462
763.121	0.066441
763.435	0.066312
763.749	0.066071
764.062	0.065839
764.376	0.065557
764.689	0.065248
765.003	0.064946
765.316	0.064671
765.630	0.064532
765.943	0.064386
766.257	0.064243
766.570	0.064090
766.883	0.063912
767.196	0.063709
767.509	0.063379
767.822	0.063052
768.135	0.062743
768.448	0.062371
768.761	0.061979
769.074	0.061648
769.387	0.061265
769.700	0.060924
770.013	0.060647
770.325	0.060452
770.638	0.060255
770.950	0.060105
771.263	0.059897
771.575	0.059705
771.888	0.059395
772.200	0.059023
772.513	0.058559
772.825	0.058172
773.137	0.057798
773.449	0.057511
773.761	0.057128
774.074	0.056817
774.386	0.056541
774.698	0.056221
775.010	0.055828
775.321	0.055462
775.633	0.055027
775.945	0.054810
776.257	0.054686
776.568	0.054444
776.880	0.054275
777.192	0.054151
777.503	0.054019
777.815	0.054039
778.126	0.054022
778.438	0.054070
778.749	0.054167
779.060	0.054311
779.372	0.054387
779.683	0.054404
779.994	0.054413
780.305	0.054511
780.616	0.054625
780.927	0.054670
781.238	0.054658
781.549	0.054737
781.860	0.054786
782.171	0.054842
782.481	0.054915
782.792	0.054811
783.103	0.054801
783.413	0.054719
783.724	0.054576
784.034	0.054430
784.345	0.054118
784.655	0.053900
784.966	0.053688
785.276	0.053524
785.586	0.053297
785.896	0.053124
786.207	0.053040
786.517	0.052943
786.827	0.052825
787.137	0.052671
787.447	0.052515
787.757	0.052517
788.066	0.052445
788.376	0.052402
788.686	0.052276
788.996	0.052130
789.305	0.052015
789.615	0.051881
789.925	0.051768
790.234	0.051686
790.544	0.051751
790.853	0.051787
791.162	0.051778
791.472	0.051889
791.781	0.051906
792.090	0.052036
792.399	0.051932
792.708	0.051756
793.017	0.051637
793.326	0.051447
793.635	0.051316
793.944	0.051094
794.253	0.050764
794.562	0.050460
794.871	0.050246
795.179	0.050101
795.488	0.049973
795.797	0.049926
796.105	0.049850
796.414	0.049858
796.722	0.049773
797.031	0.049549
797.339	0.049411
797.647	0.049082
797.956	0.048636
798.264	0.048089
798.572	0.047501
798.880	0.047189
799.188	0.046956
799.496	0.046739
799.804	0.046574
800.112	0.046190
800.420	0.046108
800.728	0.046156
801.035	0.046099
801.343	0.045778
801.651	0.045332
801.958	0.045000
802.266	0.044734
802.573	0.044639
802.881	0.044528
803.188	0.044438
803.496	0.044465
803.803	0.044568
804.110	0.044797
804.417	0.044795
804.724	0.044767
805.032	0.044739
805.339	0.044683
805.646	0.044636
805.953	0.044366
806.259	0.044300
806.566	0.044281
806.873	0.044255
807.180	0.044166
807.486	0.044138
807.793	0.044200
808.100	0.044344
808.406	0.044371
808.713	0.044388
809.019	0.044088
809.326	0.043818
809.632	0.043570
809.938	0.042942
810.244	0.042458
810.551	0.041931
810.857	0.041506
811.163	0.041202
811.469	0.040931
811.775	0.040667
812.081	0.040435
812.387	0.040489
812.692	0.040411
812.998	0.040499
813.304	0.040422
813.610	0.040463
813.915	0.040200
814.221	0.040061
814.526	0.039998
814.832	0.040054
815.137	0.039858
815.443	0.039841
815.748	0.039803
816.053	0.039686
816.358	0.039584
816.664	0.039503
816.969	0.039356
817.274	0.039410
817.579	0.039227
817.884	0.039161
818.189	0.039201
818.493	0.039153
818.798	0.038995
819.103	0.038802
819.408	0.038397
819.712	0.038237
820.017	0.037951
820.321	0.037939
820.626	0.037835
820.930	0.037550
821.235	0.037100
821.539	0.036844
821.843	0.036901
822.148	0.036653
822.452	0.036522
822.756	0.036863
823.060	0.036675
823.364	0.036877
823.668	0.036795
823.972	0.036919
824.276	0.037045
824.580	0.036934
824.883	0.037007
825.187	0.036980
825.491	0.036952
825.795	0.037025
826.098	0.037120
826.402	0.036947
826.705	0.037103
827.008	0.036903
827.312	0.036989
827.615	0.036869
827.918	0.036821
828.222	0.036624
828.525	0.036560
828.828	0.036619
829.131	0.036526
829.434	0.036540
829.737	0.036227
830.040	0.035783
830.343	0.035459
830.645	0.035062
830.948	0.034754
831.251	0.034516
831.553	0.034314
831.856	0.034214
832.159	0.034512
832.461	0.034331
832.764	0.034384
833.066	0.033908
833.368	0.033946
833.671	0.033725
833.973	0.033931
834.275	0.033746
834.577	0.033402
834.879	0.033180
835.181	0.032891
835.483	0.032100
835.785	0.031500
836.087	0.031199
836.389	0.031254
836.690	0.030815
836.992	0.029920
837.294	0.028974
837.595	0.027815
837.897	0.027218
838.198	0.026467
838.500	0.025472
838.801	0.024658
839.103	0.024174
839.404	0.023696
839.705	0.022870
840.006	0.022799
840.307	0.022245
840.608	0.022240
840.910	0.022278
841.210	0.022643
841.511	0.022438
841.812	0.023051
842.113	0.023388
842.414	0.023155
842.715	0.022469
843.015	0.021690
843.316	0.021522
843.616	0.021319
843.917	0.021346
844.217	0.020975
844.518	0.021034
844.818	0.020534
845.118	0.020640
845.419	0.020589
845.719	0.020454
846.019	0.020841
846.319	0.020861
846.619	0.020675
846.919	0.021044
847.219	0.021152
847.519	0.020662
847.819	0.020983
848.118	0.020463
848.418	0.020220
848.718	0.019277
849.017	0.019415
849.317	0.019685
849.616	0.020242
849.916	0.020646
850.215	0.021008
850.515	0.021538
850.814	0.021830
851.113	0.022134
851.412	0.022465
851.712	0.022660
852.011	0.022710
852.310	0.023044
852.609	0.023119
852.908	0.023158
853.206	0.023103
853.505	0.023380
853.804	0.023481
854.103	0.023393
854.401	0.023465
854.700	0.023528
854.999	0.023780
855.297	0.023820
855.595	0.024095
855.894	0.024091
856.192	0.024101
856.491	0.024249
856.789	0.023679
857.087	0.023170
857.385	0.022936
857.683	0.022716
857.981	0.022377
858.279	0.022494
858.577	0.021539
858.875	0.021085
859.173	0.020874
859.471	0.020632
859.768	0.020253
860.066	0.019919
860.363	0.019763
860.661	0.019597
860.959	0.019693
861.256	0.019776
861.553	0.019715
861.851	0.018556
862.148	0.017883
862.445	0.017887
862.742	0.017116
863.039	0.016815
863.337	0.016983
863.634	0.016207
863.931	0.015553
864.227	0.014899
864.524	0.014626
864.821	0.014931
865.118	0.014695
865.415	0.014727
865.711	0.014547
866.008	0.013719
866.304	0.013801
866.601	0.013804
866.897	0.013644
867.194	0.013450
867.490	0.013275
867.786	0.012885
868.082	0.013374
868.379	0.013229
868.675	0.012390
868.971	0.012139
869.267	0.013072
869.563	0.013429
869.859	0.013517
870.154	0.013322
870.450	0.013980
870.746	0.013555
871.042	0.013738
871.337	0.013557
871.633	0.012574
871.928	0.012040
872.224	0.011911
872.519	0.010975
872.815	0.011093
873.110	0.010825
873.405	0.010614
873.700	0.010308
873.995	0.010372
874.291	0.010222
874.586	0.010378
874.881	0.010992
875.175	0.011218
875.470	0.010747
875.765	0.010424
876.060	0.010874
876.355	0.011008
876.649	0.011082
876.944	0.011409
877.238	0.011567
877.533	0.012089
877.827	0.013090
878.122	0.013784
878.416	0.013885
878.710	0.015004
879.005	0.014875
879.299	0.014866
879.593	0.014719
879.887	0.014676
880.181	0.014393
880.475	0.014813
880.769	0.014960
881.063	0.014989
881.356	0.015244
881.650	0.014953
881.944	0.014844
882.238	0.004876
882.531	0.015097
882.825	0.004945
883.118	0.003001
883.412	0.015942
883.705	0.010198
883.998	0.012419
884.291	0.017878
884.585	0.002601
884.878	0.012881
>>>>>>>>>> END of Data <<<<<<<<<<
>>>>>>>>>> Raw Data Start <<<<<<<<
190.664	-395
191.040	5
191.415	5
191.791	4
192.166	7
192.542	10
192.917	5
193.293	8
193.668	5
194.044	11
194.419	-10
194.794	9
195.170	9
195.545	10
195.920	10
196.296	11
196.671	11
197.046	12
197.421	12
197.796	13
198.171	13
198.546	13
198.922	14
199.297	14
199.672	15
200.047	15
200.422	15
200.796	15
201.171	15
201.546	15
201.921	15
202.296	16
202.671	15
203.045	15
203.420	16
203.795	16
204.170	16
204.544	15
204.919	15
205.294	15
205.668	15
206.043	15
206.417	15
206.792	14
207.166	14
207.541	14
207.915	14
208.289	13
208.664	13
209.038	13
209.412	14
209.787	14
210.161	14
210.535	14
210.909	15
211.284	14
211.658	15
212.032	14
212.406	15
212.780	14
213.154	14
213.528	14
213.902	14
214.276	14
214.650	15
215.024	15
215.398	15
215.772	15
216.145	15
216.519	15
216.893	15
217.267	14
217.640	15
218.014	15
218.388	15
218.761	15
219.135	15
219.508	15
219.882	15
220.256	15
220.629	15
221.003	15
221.376	15
221.749	15
222.123	15
222.496	15
222.869	15
223.243	14
223.616	15
223.989	15
224.362	15
224.736	15
225.109	16
225.482	16
225.855	16
226.228	15
226.601	15
226.974	15
227.347	15
227.720	15
228.093	15
228.466	15
228.839	15
229.212	15
229.585	15
229.957	15
230.330	15
230.703	15
231.076	16
231.448	16
231.821	15
232.194	15
232.566	15
232.939	15
233.311	15
233.684	15
234.056	15
234.429	15
234.801	15
235.174	16
235.546	16
235.918	16
236.291	16
236.663	16
237.035	16
237.408	16
237.780	16
238.152	16
238.524	16
238.896	16
239.268	16
239.641	16
240.013	17
240.385	16
240.757	17
241.129	17
241.500	17
241.872	17
242.244	17
242.616	17
242.988	17
243.360	17
243.731	17
244.103	17
244.475	17
244.847	17
245.218	17
245.590	17
245.961	17
246.333	17
246.705	17
247.076	17
247.448	18
247.819	18
248.190	18
248.562	18
248.933	18
249.305	18
249.676	18
250.047	18
250.418	18
250.790	18
251.161	18
251.532	18
251.903	18
252.274	18
252.645	18
253.016	18
253.387	18
253.758	18
254.129	18
254.500	18
254.871	19
255.242	18
255.613	18
255.984	18
256.355	18
256.725	18
257.096	18
257.467	18
257.838	18
258.208	18
258.579	18
258.949	18
259.320	19
259.690	19
260.061	19
260.431	19
260.802	19
261.172	19
261.543	19
261.913	18
262.283	19
262.654	19
263.024	19
263.394	18
263.764	18
264.135	19
264.505	19
264.875	18
265.245	18
265.615	18
265.985	18
266.355	18
266.725	18
267.095	18
267.465	18
267.835	18
268.205	18
268.575	18
268.944	18
269.314	18
269.684	18
270.054	18
270.423	18
270.793	18
271.163	18
271.532	18
271.902	18
272.271	18
272.641	18
273.010	18
273.380	19
273.749	19
274.119	19
274.488	19
274.857	19
275.227	19
275.596	19
275.965	19
276.335	19
276.704	19
277.073	19
277.442	19
277.811	19
278.180	19
278.549	19
278.918	20
279.287	20
279.656	19
280.025	19
280.394	20
280.763	20
281.132	20
281.501	19
281.869	19
282.238	19
282.607	19
282.976	19
283.344	19
283.713	19
284.081	19
284.450	19
284.819	19
285.187	19
285.556	19
285.924	19
286.292	19
286.661	19
287.029	19
287.398	19
287.766	19
288.134	19
288.502	20
288.871	20
289.239	20
289.607	20
289.975	19
290.343	20
290.711	20
291.079	20
291.447	19
291.815	19
292.183	19
292.551	19
292.919	19
293.287	19
293.655	19
294.022	19
294.390	19
294.758	18
295.126	18
295.493	18
295.861	18
296.229	17
296.596	17
296.964	18
297.331	18
297.699	18
298.066	18
298.434	19
298.801	18
299.168	19
299.536	18
299.903	19
300.270	19
300.638	19
301.005	19
301.372	19
301.739	19
302.106	20
302.473	20
302.840	20
303.207	20
303.574	20
303.941	21
304.308	21
304.675	21
305.042	21
305.409	21
305.776	21
306.143	21
306.509	22
306.876	21
307.243	22
307.610	22
307.976	22
308.343	22
308.709	22
309.076	22
309.442	22
309.809	23
310.175	22
310.542	23
310.908	24
311.275	24
311.641	24
312.007	25
312.373	25
312.740	26
313.106	26
313.472	26
313.838	27
314.204	27
314.570	28
314.936	29
315.302	30
315.668	31
316.034	32
316.400	32
316.766	33
317.132	34
317.498	35
317.864	36
318.230	37
318.595	38
318.961	39
319.327	40
319.692	41
320.058	43
320.424	44
320.789	46
321.155	48
321.520	49
321.886	51
322.251	53
322.616	55
322.982	57
323.347	59
323.712	61
324.078	64
324.443	67
324.808	70
325.173	72
325.539	75
325.904	77
326.269	80
326.634	83
326.999	86
327.364	89
327.729	92
328.094	95
328.459	98
328.823	101
329.188	104
329.553	107
329.918	110
330.283	113
330.647	116
331.012	119
331.377	122
331.741	125
332.106	128
332.470	131
332.835	135
333.199	138
333.564	142
333.928	145
334.293	148
334.657	152
335.021	155
335.386	159
335.750	163
336.114	166
336.478	170
336.843	173
337.207	177
337.571	180
337.935	184
338.299	188
338.663	192
339.027	195
339.391	198
339.755	202
340.119	206
340.483	210
340.846	213
341.210	216
341.574	219
341.938	223
342.301	226
342.665	229
343.029	232
343.392	235
343.756	238
344.119	242
344.483	245
344.846	248
345.210	251
345.573	254
345.937	256
346.300	259
346.663	262
347.027	264
347.390	267
347.753	270
348.116	272
348.479	274
348.843	277
349.206	279
349.569	282
349.932	284
350.295	286
350.658	288
351.021	290
351.383	292
351.746	294
352.109	296
352.472	298
352.835	300
353.197	301
353.560	303
353.923	305
354.285	307
354.648	309
355.011	310
355.373	311
355.736	313
356.098	314
356.461	316
356.823	318
357.185	319
357.548	320
357.910	321
358.272	323
358.635	324
358.997	326
359.359	327
359.721	329
360.083	330
360.445	331
360.807	332
361.169	333
361.531	335
361.893	336
362.255	337
362.617	338
362.979	339
363.341	341
363.703	343
364.064	344
364.426	345
364.788	347
365.149	348
365.511	350
365.873	351
366.234	352
366.596	352
366.957	353
367.319	354
367.680	355
368.042	355
368.403	356
368.764	356
369.126	357
369.487	357
369.848	358
370.209	358
370.570	358
370.931	358
371.293	358
371.654	359
372.015	359
372.376	359
372.737	359
373.098	359
373.458	360
373.819	360
374.180	361
374.541	362
374.902	363
375.263	364
375.623	365
375.984	366
376.345	368
376.705	370
377.066	371
377.426	372
377.787	373
378.147	374
378.508	376
378.868	377
379.228	378
379.589	379
379.949	380
380.309	381
380.670	382
381.030	383
381.390	384
381.750	385
382.110	385
382.470	386
382.830	386
383.190	386
383.550	387
383.910	388
384.270	389
384.630	391
384.990	392
385.350	394
385.709	395
386.069	396
386.429	397
386.788	398
387.148	398
387.508	399
387.867	400
388.227	402
388.586	404
388.946	406
389.305	409
389.665	411
390.024	414
390.383	417
390.743	419
391.102	421
391.461	423
391.820	424
392.179	426
392.539	427
392.898	428
393.257	430
393.616	432
393.975	435
394.334	438
394.693	441
395.051	446
395.410	449
395.769	452
396.128	454
396.487	456
396.845	458
397.204	459
397.563	460
397.921	460
398.280	462
398.638	463
398.997	464
399.355	466
399.714	467
400.072	468
400.431	470
400.789	472
401.147	474
401.506	476
401.864	478
402.222	479
402.580	479
402.938	480
403.297	480
403.655	481
404.013	481
404.371	482
404.729	482
405.087	484
405.444	485
405.802	487
406.160	488
406.518	490
406.876	492
407.233	493
407.591	495
407.949	496
408.306	498
408.664	499
409.022	501
409.379	503
409.737	504
410.094	507
410.451	509
410.809	512
411.166	514
411.523	517
411.881	519
412.238	522
412.595	525
412.952	527
413.310	529
413.667	530
414.024	533
414.381	535
414.738	537
415.095	540
415.452	543
415.809	546
416.165	548
416.522	551
416.879	554
417.236	558
417.593	564
417.949	570
418.306	576
418.663	584
419.019	591
419.376	600
419.732	608
420.089	614
420.445	621
420.802	628
421.158	634
421.514	639
421.871	645
422.227	650
422.583	655
422.939	659
423.295	664
423.652	669
424.008	674
424.364	677
424.720	680
425.076	683
425.432	685
425.788	688
426.143	692
426.499	697
426.855	701
427.211	706
427.567	712
427.922	716
428.278	720
428.634	723
428.989	726
429.345	730
429.700	735
430.056	740
430.411	745
430.767	751
431.122	757
431.478	762
431.833	767
432.188	773
432.543	777
432.899	781
433.254	785
433.609	787
433.964	788
434.319	790
434.674	792
435.029	795
435.384	798
435.739	803
436.094	810
436.449	816
436.804	825
437.158	834
437.513	844
437.868	855
438.223	867
438.577	879
438.932	892
439.287	906
439.641	919
439.996	933
440.350	946
440.704	959
441.059	972
441.413	986
441.768	999
442.122	1012
442.476	1025
442.830	1037
443.185	1050
443.539	1061
443.893	1073
444.247	1083
444.601	1092
444.955	1099
445.309	1103
445.663	1108
446.017	1111
446.371	1115
446.724	1117
447.078	1119
447.432	1120
447.786	1121
448.139	1122
448.493	1122
448.847	1121
449.200	1120
449.554	1119
449.907	1118
450.261	1117
450.614	1116
450.968	1116
451.321	1115
451.674	1115
452.027	1114
452.381	1115
452.734	1117
453.087	1118
453.440	1120
453.793	1123
454.146	1127
454.499	1134
454.852	1143
455.205	1151
455.558	1161
455.911	1171
456.264	1181
456.617	1191
456.970	1200
457.322	1208
457.675	1216
458.028	1223
458.380	1228
458.733	1233
459.086	1239
459.438	1246
459.791	1254
460.143	1263
460.496	1276
460.848	1288
461.200	1303
461.553	1318
461.905	1332
462.257	1344
462.609	1356
462.961	1366
463.314	1375
463.666	1382
464.018	1389
464.370	1395
464.722	1403
465.074	1411
465.426	1417
465.777	1425
466.129	1430
466.481	1434
466.833	1436
467.184	1436
467.536	1434
467.888	1431
468.239	1427
468.591	1423
468.943	1420
469.294	1419
469.646	1420
469.997	1423
470.348	1429
470.700	1438
471.051	1450
471.402	1464
471.754	1483
472.105	1501
472.456	1521
472.807	1544
473.158	1569
473.509	1596
473.860	1626
474.211	1656
474.562	1688
474.913	1720
475.264	1756
475.615	1789
475.966	1823
476.316	1856
476.667	1889
477.018	1923
477.368	1958
477.719	1993
478.070	2026
478.420	2058
478.771	2089
479.121	2119
479.472	2150
479.822	2180
480.172	2215
480.523	2255
480.873	2311
481.223	2406
481.573	2547
481.924	2725
482.274	2926
482.624	3136
482.974	3347
483.324	3531
483.674	3669
484.024	3763
484.374	3825
484.724	3864
485.073	3890
485.423	3913
485.773	3934
486.123	3954
486.472	3973
486.822	3991
487.172	4007
487.521	4018
487.871	4021
488.220	4007
488.570	3953
488.919	3853
489.268	3715
489.618	3554
489.967	3381
490.316	3207
490.666	3057
491.015	2949
491.364	2884
491.713	2850
492.062	2839
492.411	2839
492.760	2845
493.109	2852
493.458	2860
493.807	2866
494.156	2871
494.505	2876
494.853	2882
495.202	2890
495.551	2903
495.900	2916
496.248	2930
496.597	2945
496.945	2958
497.294	2971
497.642	2986
497.991	3002
498.339	3022
498.688	3044
499.036	3064
499.384	3083
499.732	3099
500.081	3111
500.429	3123
500.777	3133
501.125	3142
501.473	3151
501.821	3162
502.169	3171
502.517	3179
502.865	3182
503.213	3184
503.561	3183
503.908	3182
504.256	3180
504.604	3176
504.952	3170
505.299	3164
505.647	3154
505.994	3142
506.342	3130
506.689	3117
507.037	3106
507.384	3098
507.732	3091
508.079	3085
508.426	3080
508.774	3075
509.121	3068
509.468	3061
509.815	3052
510.162	3045
510.509	3038
510.856	3029
511.203	3020
511.550	3011
511.897	3003
512.244	2994
512.591	2986
512.938	2978
513.284	2970
513.631	2961
513.978	2951
514.324	2941
514.671	2929
515.018	2917
515.364	2907
515.711	2898
516.057	2887
516.403	2878
516.750	2868
517.096	2855
517.443	2842
517.789	2829
518.135	2816
518.481	2806
518.827	2796
519.173	2784
519.519	2774
519.865	2764
520.211	2755
520.557	2746
520.903	2739
521.249	2732
521.595	2727
521.941	2720
522.287	2714
522.632	2708
522.978	2702
523.324	2699
523.669	2696
524.015	2696
524.360	2700
524.706	2707
525.051	2716
525.397	2728
525.742	2741
526.087	2753
526.433	2767
526.778	2777
527.123	2785
527.468	2792
527.813	2798
528.158	2803
528.504	2812
528.849	2824
529.193	2841
529.538	2861
529.883	2887
530.228	2916
530.573	2949
530.918	2984
531.263	3018
531.607	3049
531.952	3077
532.296	3099
532.641	3117
532.986	3130
533.330	3144
533.675	3158
534.019	3177
534.363	3202
534.708	3232
535.052	3267
535.396	3304
535.741	3340
536.085	3371
536.429	3399
536.773	3421
537.117	3438
537.461	3452
537.805	3465
538.149	3479
538.493	3494
538.837	3511
539.181	3532
539.524	3559
539.868	3591
540.212	3628
540.556	3667
540.899	3707
541.243	3743
541.586	3772
541.930	3794
542.273	3809
542.617	3820
542.960	3831
543.304	3848
543.647	3870
543.990	3901
544.333	3936
544.677	3971
545.020	4005
545.363	4032
545.706	4052
546.049	4065
546.392	4070
546.735	4068
547.078	4064
547.421	4060
547.764	4057
548.106	4057
548.449	4061
548.792	4073
549.135	4092
549.477	4118
549.820	4143
550.162	4164
550.505	4177
550.847	4186
551.190	4187
551.532	4187
551.875	4186
552.217	4189
552.559	4194
552.901	4206
553.244	4222
553.586	4242
553.928	4262
554.270	4279
554.612	4292
554.954	4300
555.296	4305
555.638	4310
555.980	4316
556.322	4324
556.663	4341
557.005	4368
557.347	4404
557.689	4445
558.030	4484
558.372	4519
558.713	4549
559.055	4578
559.396	4605
559.738	4635
560.079	4669
560.421	4708
560.762	4754
561.103	4806
561.444	4866
561.786	4928
562.127	4995
562.468	5068
562.809	5149
563.150	5239
563.491	5337
563.832	5446
564.173	5570
564.514	5714
564.855	5889
565.195	6106
565.536	6369
565.877	6675
566.218	7024
566.558	7419
566.899	7851
567.239	8318
567.580	8808
567.920	9311
568.261	9816
568.601	10333
568.941	10868
569.282	11417
569.622	11986
569.962	12577
570.302	13207
570.643	13855
570.983	14507
571.323	15134
571.663	15735
572.003	16304
572.343	16833
572.683	17324
573.022	17823
573.362	18346
573.702	18886
574.042	19424
574.381	19936
574.721	20420
575.061	20882
575.400	21300
575.740	21665
576.079	21985
576.419	22302
576.758	22666
577.097	23098
577.437	23574
577.776	24084
578.115	24619
578.454	25160
578.794	25653
579.133	26028
579.472	26275
579.811	26402
580.150	26419
580.489	26351
580.828	26243
581.167	26139
581.505	26058
581.844	25988
582.183	25919
582.522	25871
582.860	25838
583.199	25805
583.538	25737
583.876	25589
584.215	25334
584.553	24956
584.891	24468
585.230	23879
585.568	23234
585.906	22583
586.245	21996
586.583	21492
586.921	21074
587.259	20695
587.597	20315
587.935	19923
588.273	19519
588.611	19143
588.949	18807
589.287	18521
589.625	18292
589.963	18108
590.300	17957
590.638	17818
590.976	17665
591.313	17488
591.651	17322
591.989	17175
592.326	17055
592.664	16949
593.001	16861
593.338	16802
593.676	16766
594.013	16762
594.350	16810
594.687	16903
595.025	17007
595.362	17101
595.699	17162
596.036	17195
596.373	17189
596.710	17139
597.047	17060
597.384	16968
597.720	16867
598.057	16782
598.394	16719
598.731	16676
599.067	16663
599.404	16680
599.741	16737
600.077	16821
600.414	16917
600.750	17018
601.087	17093
601.423	17123
601.759	17115
602.096	17076
602.432	17014
602.768	16927
603.104	16812
603.440	16672
603.776	16524
604.112	16365
604.448	16203
604.784	16033
605.120	15853
605.456	15678
605.792	15495
606.128	15304
606.463	15107
606.799	14910
607.135	14731
607.470	14552
607.806	14377
608.142	14205
608.477	14041
608.812	13882
609.148	13723
609.483	13556
609.819	13386
610.154	13222
610.489	13071
610.824	12939
611.159	12827
611.494	12714
611.830	12614
612.165	12516
612.500	12408
612.834	12282
613.169	12140
613.504	11986
613.839	11814
614.174	11621
614.509	11427
614.843	11233
615.178	11050
615.512	10867
615.847	10688
616.182	10511
616.516	10332
616.850	10144
617.185	9949
617.519	9751
617.853	9538
618.188	9318
618.522	9116
618.856	8945
619.190	8796
619.524	8665
619.858	8561
620.192	8477
620.526	8402
620.860	8329
621.194	8257
621.528	8188
621.862	8119
622.195	8036
622.529	7948
622.863	7857
623.196	7766
623.530	7674
623.864	7582
624.197	7488
624.530	7398
624.864	7317
625.197	7232
625.531	7137
625.864	7022
626.197	6899
626.530	6766
626.863	6618
627.196	6457
627.529	6295
627.862	6134
628.195	5975
628.528	5818
628.861	5668
629.194	5532
629.527	5404
629.860	5277
630.192	5153
630.525	5036
630.858	4927
631.190	4824
631.523	4723
631.855	4630
632.188	4549
632.520	4473
632.852	4401
633.185	4328
633.517	4257
633.849	4192
634.182	4133
634.514	4077
634.846	4026
635.178	3982
635.510	3943
635.842	3906
636.174	3871
636.506	3836
636.837	3801
637.169	3766
637.501	3730
637.833	3691
638.164	3647
638.496	3598
638.828	3543
639.159	3481
639.491	3414
639.822	3345
640.154	3275
640.485	3206
640.816	3138
641.147	3070
641.479	3005
641.810	2943
642.141	2881
642.472	2821
642.803	2762
643.134	2706
643.465	2658
643.796	2618
644.127	2591
644.458	2576
644.789	2575
645.119	2589
645.450	2612
645.781	2638
646.111	2664
646.442	2687
646.773	2705
647.103	2718
647.433	2730
647.764	2743
648.094	2760
648.425	2781
648.755	2808
649.085	2839
649.415	2870
649.745	2903
650.075	2938
650.405	2976
650.735	3061
651.065	3674
651.395	5580
651.725	8715
652.055	12347
652.385	15975
652.715	19601
653.044	23230
653.374	26863
653.704	30503
654.033	33555
654.363	35471
654.692	36743
655.022	37571
655.351	38115
655.680	38452
656.010	38635
656.339	38718
656.668	38740
656.997	38729
657.326	38696
657.655	38602
657.984	37968
658.313	36032
658.642	32856
658.971	29172
659.300	25487
659.629	21803
659.958	18120
660.286	14437
660.615	10756
660.944	7671
661.272	5725
661.601	4425
661.929	3566
662.258	2987
662.586	2608
662.915	2377
663.243	2243
663.571	2167
663.899	2121
664.228	2092
664.556	2072
664.884	2059
665.212	2049
665.540	2042
665.868	2038
666.196	2036
666.524	2035
666.852	2036
667.179	2043
667.507	2059
667.835	2081
668.162	2111
668.490	2148
668.818	2192
669.145	2239
669.473	2284
669.800	2326
670.127	2364
670.455	2395
670.782	2420
671.109	2443
671.436	2463
671.764	2478
672.091	2491
672.418	2502
672.745	2511
673.072	2520
673.399	2531
673.726	2543
674.053	2552
674.379	2555
674.706	2553
675.033	2551
675.359	2547
675.686	2542
676.013	2538
676.339	2540
676.666	2547
676.992	2565
677.318	2591
677.645	2621
677.971	2648
678.297	2673
678.624	2697
678.950	2721
679.276	2742
679.602	2763
679.928	2785
680.254	2812
680.580	2847
680.906	2891
681.232	2946
681.558	3003
681.883	3060
682.209	3112
682.535	3161
682.860	3205
683.186	3242
683.511	3271
683.837	3289
684.162	3304
684.488	3314
684.813	3326
685.138	3337
685.464	3346
685.789	3354
686.114	3362
686.439	3373
686.764	3385
687.089	3393
687.414	3393
687.739	3382
688.064	3361
688.389	3335
688.714	3304
689.039	3270
689.363	3234
689.688	3196
690.013	3158
690.337	3124
690.662	3097
690.986	3072
691.311	3047
691.635	3021
691.959	2998
692.284	2982
692.608	2978
692.932	2983
693.256	2992
693.580	3004
693.904	3019
694.228	3038
694.552	3054
694.876	3062
695.200	3059
695.524	3044
695.848	3025
696.172	3000
696.495	2974
696.819	2947
697.143	2919
697.466	2890
697.790	2866
698.113	2849
698.437	2840
698.760	2838
699.083	2836
699.407	2828
699.730	2812
700.053	2788
700.376	2756
700.699	2711
701.022	2654
701.345	2593
701.668	2536
701.991	2488
702.314	2455
702.637	2440
702.960	2445
703.283	2470
703.605	2515
703.928	2575
704.251	2643
704.573	2711
704.896	2772
705.218	2822
705.540	2861
705.863	2894
706.185	2919
706.507	2942
706.830	2963
707.152	2985
707.474	3009
707.796	3036
708.118	3064
708.440	3092
708.762	3116
709.084	3134
709.406	3144
709.728	3146
710.049	3139
710.371	3125
710.693	3104
711.014	3080
711.336	3057
711.658	3037
711.979	3019
712.301	3002
712.622	2984
712.943	2962
713.265	2936
713.586	2910
713.907	2884
714.228	2861
714.549	2843
714.870	2830
715.191	2824
715.512	2822
715.833	2818
716.154	2810
716.475	2797
716.796	2778
717.117	2752
717.437	2721
717.758	2686
718.078	2651
718.399	2616
718.719	2585
719.040	2558
719.360	2537
719.681	2521
720.001	2512
720.321	2506
720.642	2504
720.962	2505
721.282	2511
721.602	2519
721.922	2528
722.242	2540
722.562	2557
722.882	2576
723.202	2594
723.521	2610
723.841	2627
724.161	2645
724.481	2662
724.800	2680
725.120	2703
725.439	2731
725.759	2764
726.078	2800
726.398	2845
726.717	2900
727.036	2962
727.355	3027
727.675	3090
727.994	3150
728.313	3208
728.632	3257
728.951	3299
729.270	3334
729.589	3367
729.908	3409
730.226	3456
730.545	3507
730.864	3563
731.182	3623
731.501	3684
731.820	3741
732.138	3791
732.457	3835
732.775	3876
733.093	3908
733.412	3927
733.730	3932
734.048	3923
734.367	3906
734.685	3882
735.003	3855
735.321	3831
735.639	3811
735.957	3795
736.275	3781
736.593	3759
736.910	3727
737.228	3683
737.546	3626
737.863	3559
738.181	3486
738.499	3408
738.816	3332
739.134	3257
739.451	3181
739.768	3104
740.086	3031
740.403	2963
740.720	2899
741.038	2840
741.355	2783
741.672	2727
741.989	2669
742.306	2609
742.623	2547
742.940	2487
743.257	2431
743.573	2382
743.890	2342
744.207	2313
744.523	2292
744.840	2278
745.157	2270
745.473	2269
745.790	2277
746.106	2294
746.422	2321
746.739	2355
747.055	2395
747.371	2440
747.687	2488
748.004	2533
748.320	2572
748.636	2608
748.952	2643
749.268	2679
749.584	2712
749.899	2743
750.215	2775
750.531	2811
750.847	2851
751.162	2891
751.478	2930
751.793	2971
752.109	3015
752.424	3062
752.740	3110
753.055	3164
753.370	3229
753.686	3304
754.001	3385
754.316	3470
754.631	3560
754.946	3656
755.261	3756
755.576	3854
755.891	3948
756.206	4041
756.521	4140
756.836	4240
757.150	4336
757.465	4421
757.780	4494
758.094	4555
758.409	4602
758.723	4632
759.038	4645
759.352	4645
759.667	4632
759.981	4609
760.295	4587
760.609	4570
760.923	4560
761.238	4553
761.552	4550
761.866	4544
762.180	4535
762.493	4511
762.807	4464
763.121	4392
763.435	4302
763.749	4203
764.062	4109
764.376	4032
764.689	3978
765.003	3950
765.316	3946
765.630	3960
765.943	3983
766.257	4010
766.570	4032
766.883	4039
767.196	4029
767.509	4003
767.822	3965
768.135	3916
768.448	3863
768.761	3807
769.074	3759
769.387	3722
769.700	3700
770.013	3686
770.325	3675
770.638	3659
770.950	3629
771.263	3581
771.575	3513
771.888	3427
772.200	3326
772.513	3218
772.825	3103
773.137	2986
773.449	2871
773.761	2759
774.074	2655
774.386	2563
774.698	2486
775.010	2422
775.321	2377
775.633	2348
775.945	2331
776.257	2321
776.568	2319
776.880	2326
777.192	2344
777.503	2369
777.815	2401
778.126	2442
778.438	2492
778.749	2545
779.060	2596
779.372	2645
779.683	2693
779.994	2735
780.305	2769
780.616	2791
780.927	2806
781.238	2811
781.549	2805
781.860	2786
782.171	2761
782.481	2732
782.792	2704
783.103	2676
783.413	2645
783.724	2613
784.034	2581
784.345	2553
784.655	2527
784.966	2501
785.276	2472
785.586	2445
785.896	2417
786.207	2388
786.517	2358
786.827	2328
787.137	2300
787.447	2272
787.757	2246
788.066	2221
788.376	2197
788.686	2173
788.996	2149
789.305	2125
789.615	2105
789.925	2095
790.234	2092
790.544	2097
790.853	2107
791.162	2119
791.472	2128
791.781	2133
792.090	2128
792.399	2116
792.708	2096
793.017	2074
793.326	2052
793.635	2032
793.944	2013
794.253	1998
794.562	1987
794.871	1980
795.179	1975
795.488	1968
795.797	1958
796.105	1940
796.414	1910
796.722	1871
797.031	1821
797.339	1761
797.647	1693
797.956	1622
798.264	1557
798.572	1503
798.880	1460
799.188	1429
799.496	1406
799.804	1389
800.112	1376
800.420	1365
800.728	1354
801.035	1340
801.343	1324
801.651	1312
801.958	1308
802.266	1314
802.573	1325
802.881	1340
803.188	1357
803.496	1377
803.803	1397
804.110	1415
804.417	1431
804.724	1445
805.032	1459
805.339	1469
805.646	1477
805.953	1481
806.259	1482
806.566	1480
806.873	1474
807.180	1467
807.486	1459
807.793	1450
808.100	1434
808.406	1411
808.713	1378
809.019	1340
809.326	1303
809.632	1266
809.938	1232
810.244	1201
810.551	1176
810.857	1154
811.163	1135
811.469	1115
811.775	1093
812.081	1071
812.387	1051
812.692	1035
812.998	1022
813.304	1012
813.610	1004
813.915	998
814.221	993
814.526	989
814.832	985
815.137	980
815.443	974
815.748	965
816.053	952
816.358	939
816.664	927
816.969	916
817.274	907
817.579	899
817.884	894
818.189	893
818.493	892
818.798	890
819.103	885
819.408	876
819.712	866
820.017	855
820.321	843
820.626	831
820.930	820
821.235	814
821.539	811
821.843	810
822.148	812
822.452	814
822.756	813
823.060	810
823.364	805
823.668	798
823.972	790
824.276	781
824.580	774
824.883	771
825.187	770
825.491	770
825.795	769
826.098	770
826.402	769
826.705	766
827.008	760
827.312	752
827.615	740
827.918	724
828.222	707
828.525	689
828.828	672
829.131	655
829.434	638
829.737	622
830.040	609
830.343	599
830.645	590
830.948	581
831.251	572
831.553	564
831.856	558
832.159	551
832.461	544
832.764	536
833.066	529
833.368	522
833.671	518
833.973	514
834.275	510
834.577	507
834.879	503
835.181	498
835.483	492
835.785	486
836.087	478
836.389	467
836.690	455
836.992	443
837.294	430
837.595	417
837.897	402
838.198	388
838.500	374
838.801	362
839.103	352
839.404	343
839.705	335
840.006	329
840.307	324
840.608	320
840.910	317
841.210	315
841.511	313
841.812	309
842.113	306
842.414	301
842.715	296
843.015	290
843.316	283
843.616	277
843.917	272
844.217	267
844.518	263
844.818	260
845.118	258
845.419	257
845.719	255
846.019	253
846.319	252
846.619	251
846.919	250
847.219	248
847.519	247
847.819	245
848.118	246
848.418	248
848.718	256
849.017	269
849.317	286
849.616	307
849.916	331
850.215	359
850.515	388
850.814	417
851.113	443
851.412	467
851.712	488
852.011	508
852.310	527
852.609	544
852.908	558
853.206	572
853.505	583
853.804	594
854.103	603
854.401	610
854.700	613
854.999	610
855.297	603
855.595	590
855.894	573
856.192	552
856.491	527
856.789	502
857.087	475
857.385	450
857.683	427
857.981	406
858.279	387
858.577	369
858.875	354
859.173	341
859.471	331
859.768	322
860.066	314
860.363	307
860.661	302
860.959	298
861.256	294
861.553	289
861.851	284
862.148	279
862.445	273
862.742	268
863.039	263
863.337	259
863.634	256
863.931	255
864.227	253
864.524	253
864.821	253
865.118	252
865.415	249
865.711	246
866.008	242
866.304	237
866.601	232
866.897	228
867.194	225
867.490	222
867.786	221
868.082	221
868.379	221
868.675	222
868.971	223
869.267	222
869.563	222
869.859	222
870.154	221
870.450	219
870.746	218
871.042	217
871.337	217
871.633	218
871.928	219
872.224	221
872.519	223
872.815	224
873.110	225
873.405	225
873.700	224
873.995	224
874.291	224
874.586	225
874.881	225
875.175	228
875.470	231
875.765	235
876.060	240
876.355	244
876.649	249
876.944	254
877.238	258
877.533	262
877.827	264
878.122	266
878.416	267
878.710	267
879.005	266
879.299	265
879.593	264
879.887	263
880.181	262
880.475	260
880.769	258
881.063	255
881.356	252
881.650	249
881.944	245
882.238	205
882.531	193
882.825	194
883.118	198
883.412	195
883.705	195
883.998	201
884.291	204
884.585	212
884.878	215
>>>>>>>>>> END of Data <<<<<<<<<<